Photon    Coherent Incoher. Photoel. Nuclear  Electron Tot. w/  Tot. wo/ 
Energy    Scatter. Scatter. Absorb.  Pr. Prd. Pr. Prd. Coherent Coherent 

1.000E-03 1.362E+00 1.038E-02 3.605E+03 0.000E+00 0.000E+00 3.606E+03 3.605E+03 
1.500E-03 1.247E+00 2.116E-02 1.190E+03 0.000E+00 0.000E+00 1.191E+03 1.190E+03 
2.000E-03 1.116E+00 3.340E-02 5.268E+02 0.000E+00 0.000E+00 5.280E+02 5.269E+02 
3.000E-03 8.634E-01 5.748E-02 1.616E+02 0.000E+00 0.000E+00 1.625E+02 1.616E+02 
3.203E-03 8.182E-01 6.196E-02 1.331E+02 0.000E+00 0.000E+00 1.339E+02 1.331E+02 
3.203E-03 8.182E-01 6.196E-02 1.476E+02 0.000E+00 0.000E+00 1.485E+02 1.477E+02 
4.000E-03 6.648E-01 7.770E-02 7.713E+01 0.000E+00 0.000E+00 7.787E+01 7.721E+01 
5.000E-03 5.218E-01 9.331E-02 3.966E+01 0.000E+00 0.000E+00 4.027E+01 3.975E+01 
6.000E-03 4.207E-01 1.051E-01 2.288E+01 0.000E+00 0.000E+00 2.341E+01 2.299E+01 
8.000E-03 2.946E-01 1.213E-01 9.503E+00 0.000E+00 0.000E+00 9.919E+00 9.624E+00 
1.000E-02 2.223E-01 1.316E-01 4.766E+00 0.000E+00 0.000E+00 5.120E+00 4.898E+00 
1.200E-02 1.762E-01 1.391E-01 2.697E+00 0.000E+00 0.000E+00 3.012E+00 2.836E+00 
1.400E-02 1.441E-01 1.448E-01 1.660E+00 0.000E+00 0.000E+00 1.949E+00 1.805E+00 
1.500E-02 1.314E-01 1.471E-01 1.335E+00 0.000E+00 0.000E+00 1.614E+00 1.482E+00 
1.600E-02 1.203E-01 1.493E-01 1.088E+00 0.000E+00 0.000E+00 1.358E+00 1.238E+00 
1.800E-02 1.020E-01 1.528E-01 7.485E-01 0.000E+00 0.000E+00 1.003E+00 9.013E-01 
2.000E-02 8.752E-02 1.556E-01 5.348E-01 0.000E+00 0.000E+00 7.780E-01 6.905E-01 
2.200E-02 7.582E-02 1.578E-01 3.942E-01 0.000E+00 0.000E+00 6.278E-01 5.520E-01 
2.400E-02 6.626E-02 1.595E-01 2.981E-01 0.000E+00 0.000E+00 5.239E-01 4.576E-01 
2.600E-02 5.835E-02 1.608E-01 2.304E-01 0.000E+00 0.000E+00 4.496E-01 3.912E-01 
2.800E-02 5.175E-02 1.618E-01 1.814E-01 0.000E+00 0.000E+00 3.949E-01 3.432E-01 
3.000E-02 4.619E-02 1.625E-01 1.451E-01 0.000E+00 0.000E+00 3.538E-01 3.076E-01 
3.200E-02 4.146E-02 1.629E-01 1.177E-01 0.000E+00 0.000E+00 3.222E-01 2.807E-01 
3.400E-02 3.742E-02 1.632E-01 9.674E-02 0.000E+00 0.000E+00 2.974E-01 2.599E-01 
3.600E-02 3.394E-02 1.633E-01 8.035E-02 0.000E+00 0.000E+00 2.776E-01 2.437E-01 
3.800E-02 3.091E-02 1.633E-01 6.740E-02 0.000E+00 0.000E+00 2.616E-01 2.307E-01 
4.000E-02 2.828E-02 1.632E-01 5.704E-02 0.000E+00 0.000E+00 2.485E-01 2.202E-01 
4.200E-02 2.596E-02 1.629E-01 4.866E-02 0.000E+00 0.000E+00 2.375E-01 2.116E-01 
4.400E-02 2.392E-02 1.626E-01 4.182E-02 0.000E+00 0.000E+00 2.283E-01 2.044E-01 
4.600E-02 2.211E-02 1.622E-01 3.617E-02 0.000E+00 0.000E+00 2.205E-01 1.984E-01 
4.800E-02 2.050E-02 1.618E-01 3.148E-02 0.000E+00 0.000E+00 2.138E-01 1.933E-01 
5.000E-02 1.905E-02 1.614E-01 2.755E-02 0.000E+00 0.000E+00 2.080E-01 1.889E-01 
5.200E-02 1.776E-02 1.608E-01 2.423E-02 0.000E+00 0.000E+00 2.028E-01 1.851E-01 
5.400E-02 1.659E-02 1.603E-01 2.142E-02 0.000E+00 0.000E+00 1.983E-01 1.817E-01 
5.600E-02 1.553E-02 1.598E-01 1.902E-02 0.000E+00 0.000E+00 1.943E-01 1.788E-01 
5.800E-02 1.457E-02 1.592E-01 1.695E-02 0.000E+00 0.000E+00 1.907E-01 1.761E-01 
6.000E-02 1.370E-02 1.586E-01 1.517E-02 0.000E+00 0.000E+00 1.875E-01 1.738E-01 
6.200E-02 1.290E-02 1.580E-01 1.363E-02 0.000E+00 0.000E+00 1.845E-01 1.716E-01 
6.400E-02 1.217E-02 1.574E-01 1.228E-02 0.000E+00 0.000E+00 1.818E-01 1.697E-01 
6.600E-02 1.149E-02 1.568E-01 1.110E-02 0.000E+00 0.000E+00 1.794E-01 1.679E-01 
6.800E-02 1.088E-02 1.561E-01 1.007E-02 0.000E+00 0.000E+00 1.771E-01 1.662E-01 
7.000E-02 1.031E-02 1.555E-01 9.157E-03 0.000E+00 0.000E+00 1.750E-01 1.647E-01 
7.200E-02 9.780E-03 1.549E-01 8.349E-03 0.000E+00 0.000E+00 1.730E-01 1.632E-01 
7.400E-02 9.292E-03 1.542E-01 7.633E-03 0.000E+00 0.000E+00 1.712E-01 1.619E-01 
7.600E-02 8.840E-03 1.536E-01 6.994E-03 0.000E+00 0.000E+00 1.694E-01 1.606E-01 
7.800E-02 8.419E-03 1.529E-01 6.423E-03 0.000E+00 0.000E+00 1.678E-01 1.594E-01 
8.000E-02 8.028E-03 1.523E-01 5.912E-03 0.000E+00 0.000E+00 1.662E-01 1.582E-01 
8.200E-02 7.663E-03 1.517E-01 5.452E-03 0.000E+00 0.000E+00 1.648E-01 1.571E-01 
8.400E-02 7.322E-03 1.510E-01 5.038E-03 0.000E+00 0.000E+00 1.634E-01 1.561E-01 
8.600E-02 7.003E-03 1.504E-01 4.664E-03 0.000E+00 0.000E+00 1.621E-01 1.550E-01 
8.800E-02 6.705E-03 1.497E-01 4.326E-03 0.000E+00 0.000E+00 1.608E-01 1.541E-01 
9.000E-02 6.424E-03 1.491E-01 4.019E-03 0.000E+00 0.000E+00 1.596E-01 1.531E-01 
9.200E-02 6.161E-03 1.485E-01 3.740E-03 0.000E+00 0.000E+00 1.584E-01 1.522E-01 
9.400E-02 5.914E-03 1.479E-01 3.485E-03 0.000E+00 0.000E+00 1.573E-01 1.513E-01 
9.600E-02 5.681E-03 1.472E-01 3.253E-03 0.000E+00 0.000E+00 1.562E-01 1.505E-01 
9.800E-02 5.461E-03 1.466E-01 3.041E-03 0.000E+00 0.000E+00 1.551E-01 1.497E-01 
1.000E-01 5.254E-03 1.460E-01 2.846E-03 0.000E+00 0.000E+00 1.541E-01 1.489E-01 
1.020E-01 5.059E-03 1.454E-01 2.668E-03 0.000E+00 0.000E+00 1.531E-01 1.481E-01 
1.040E-01 4.874E-03 1.448E-01 2.504E-03 0.000E+00 0.000E+00 1.522E-01 1.473E-01 
1.060E-01 4.699E-03 1.442E-01 2.352E-03 0.000E+00 0.000E+00 1.513E-01 1.466E-01 
1.080E-01 4.533E-03 1.436E-01 2.213E-03 0.000E+00 0.000E+00 1.504E-01 1.458E-01 
1.100E-01 4.376E-03 1.430E-01 2.084E-03 0.000E+00 0.000E+00 1.495E-01 1.451E-01 
1.120E-01 4.226E-03 1.425E-01 1.965E-03 0.000E+00 0.000E+00 1.486E-01 1.444E-01 
1.140E-01 4.084E-03 1.419E-01 1.855E-03 0.000E+00 0.000E+00 1.478E-01 1.437E-01 
1.160E-01 3.950E-03 1.413E-01 1.752E-03 0.000E+00 0.000E+00 1.470E-01 1.431E-01 
1.180E-01 3.821E-03 1.408E-01 1.657E-03 0.000E+00 0.000E+00 1.462E-01 1.424E-01 
1.200E-01 3.699E-03 1.402E-01 1.569E-03 0.000E+00 0.000E+00 1.455E-01 1.418E-01 
1.220E-01 3.582E-03 1.396E-01 1.487E-03 0.000E+00 0.000E+00 1.447E-01 1.411E-01 
1.240E-01 3.471E-03 1.391E-01 1.410E-03 0.000E+00 0.000E+00 1.440E-01 1.405E-01 
1.260E-01 3.365E-03 1.385E-01 1.338E-03 0.000E+00 0.000E+00 1.433E-01 1.399E-01 
1.280E-01 3.264E-03 1.380E-01 1.271E-03 0.000E+00 0.000E+00 1.425E-01 1.393E-01 
1.300E-01 3.167E-03 1.375E-01 1.209E-03 0.000E+00 0.000E+00 1.419E-01 1.387E-01 
1.320E-01 3.075E-03 1.370E-01 1.150E-03 0.000E+00 0.000E+00 1.412E-01 1.381E-01 
1.340E-01 2.986E-03 1.364E-01 1.096E-03 0.000E+00 0.000E+00 1.405E-01 1.375E-01 
1.360E-01 2.901E-03 1.359E-01 1.044E-03 0.000E+00 0.000E+00 1.399E-01 1.370E-01 
1.380E-01 2.820E-03 1.354E-01 9.958E-04 0.000E+00 0.000E+00 1.392E-01 1.364E-01 
1.400E-01 2.742E-03 1.349E-01 9.504E-04 0.000E+00 0.000E+00 1.386E-01 1.358E-01 
1.420E-01 2.667E-03 1.344E-01 9.077E-04 0.000E+00 0.000E+00 1.380E-01 1.353E-01 
1.440E-01 2.595E-03 1.339E-01 8.675E-04 0.000E+00 0.000E+00 1.374E-01 1.348E-01 
1.460E-01 2.526E-03 1.334E-01 8.297E-04 0.000E+00 0.000E+00 1.367E-01 1.342E-01 
1.480E-01 2.460E-03 1.329E-01 7.939E-04 0.000E+00 0.000E+00 1.362E-01 1.337E-01 
1.500E-01 2.396E-03 1.324E-01 7.602E-04 0.000E+00 0.000E+00 1.356E-01 1.332E-01 
1.520E-01 2.335E-03 1.319E-01 7.284E-04 0.000E+00 0.000E+00 1.350E-01 1.327E-01 
1.540E-01 2.276E-03 1.315E-01 6.983E-04 0.000E+00 0.000E+00 1.344E-01 1.322E-01 
1.560E-01 2.219E-03 1.310E-01 6.698E-04 0.000E+00 0.000E+00 1.339E-01 1.317E-01 
1.580E-01 2.164E-03 1.305E-01 6.429E-04 0.000E+00 0.000E+00 1.333E-01 1.312E-01 
1.600E-01 2.112E-03 1.301E-01 6.174E-04 0.000E+00 0.000E+00 1.328E-01 1.307E-01 
1.620E-01 2.061E-03 1.296E-01 5.932E-04 0.000E+00 0.000E+00 1.323E-01 1.302E-01 
1.640E-01 2.012E-03 1.292E-01 5.702E-04 0.000E+00 0.000E+00 1.317E-01 1.297E-01 
1.660E-01 1.964E-03 1.287E-01 5.485E-04 0.000E+00 0.000E+00 1.312E-01 1.292E-01 
1.680E-01 1.919E-03 1.283E-01 5.278E-04 0.000E+00 0.000E+00 1.307E-01 1.288E-01 
1.700E-01 1.875E-03 1.278E-01 5.081E-04 0.000E+00 0.000E+00 1.302E-01 1.283E-01 
1.720E-01 1.832E-03 1.274E-01 4.894E-04 0.000E+00 0.000E+00 1.297E-01 1.279E-01 
1.740E-01 1.791E-03 1.269E-01 4.716E-04 0.000E+00 0.000E+00 1.292E-01 1.274E-01 
1.760E-01 1.751E-03 1.265E-01 4.547E-04 0.000E+00 0.000E+00 1.287E-01 1.270E-01 
1.780E-01 1.713E-03 1.261E-01 4.385E-04 0.000E+00 0.000E+00 1.282E-01 1.265E-01 
1.800E-01 1.675E-03 1.257E-01 4.231E-04 0.000E+00 0.000E+00 1.278E-01 1.261E-01 
1.820E-01 1.639E-03 1.253E-01 4.085E-04 0.000E+00 0.000E+00 1.273E-01 1.257E-01 
1.840E-01 1.604E-03 1.248E-01 3.945E-04 0.000E+00 0.000E+00 1.268E-01 1.252E-01 
1.860E-01 1.571E-03 1.244E-01 3.811E-04 0.000E+00 0.000E+00 1.264E-01 1.248E-01 
1.880E-01 1.538E-03 1.240E-01 3.683E-04 0.000E+00 0.000E+00 1.259E-01 1.244E-01 
1.900E-01 1.506E-03 1.236E-01 3.561E-04 0.000E+00 0.000E+00 1.255E-01 1.240E-01 
1.920E-01 1.475E-03 1.232E-01 3.444E-04 0.000E+00 0.000E+00 1.250E-01 1.236E-01 
1.940E-01 1.445E-03 1.228E-01 3.333E-04 0.000E+00 0.000E+00 1.246E-01 1.232E-01 
1.960E-01 1.416E-03 1.224E-01 3.226E-04 0.000E+00 0.000E+00 1.242E-01 1.228E-01 
1.980E-01 1.388E-03 1.221E-01 3.124E-04 0.000E+00 0.000E+00 1.238E-01 1.224E-01 
2.000E-01 1.361E-03 1.217E-01 3.026E-04 0.000E+00 0.000E+00 1.233E-01 1.220E-01 
2.020E-01 1.335E-03 1.213E-01 2.932E-04 0.000E+00 0.000E+00 1.229E-01 1.216E-01 
3.000E-01 6.096E-04 1.061E-01 8.603E-05 0.000E+00 0.000E+00 1.067E-01 1.061E-01 
4.000E-01 3.438E-04 9.511E-02 3.698E-05 0.000E+00 0.000E+00 9.549E-02 9.514E-02 
5.000E-01 2.203E-04 8.688E-02 1.998E-05 0.000E+00 0.000E+00 8.712E-02 8.690E-02 
6.000E-01 1.531E-04 8.039E-02 1.246E-05 0.000E+00 0.000E+00 8.055E-02 8.040E-02 
8.000E-01 8.618E-05 7.064E-02 6.296E-06 0.000E+00 0.000E+00 7.074E-02 7.065E-02 
1.000E+00 5.517E-05 6.352E-02 3.914E-06 0.000E+00 0.000E+00 6.358E-02 6.353E-02 
1.022E+00 5.284E-05 6.287E-02 3.656E-06 0.000E+00 0.000E+00 6.293E-02 6.287E-02 
1.250E+00 3.533E-05 5.682E-02 2.481E-06 1.781E-05 0.000E+00 5.687E-02 5.684E-02 
1.500E+00 2.453E-05 5.162E-02 1.798E-06 9.848E-05 0.000E+00 5.175E-02 5.172E-02 
2.000E+00 1.380E-05 4.407E-02 1.128E-06 3.918E-04 0.000E+00 4.447E-02 4.446E-02 
2.044E+00 1.321E-05 4.351E-02 1.091E-06 4.223E-04 0.000E+00 4.394E-02 4.393E-02 
3.000E+00 6.133E-06 3.467E-02 6.276E-07 1.120E-03 1.213E-05 3.581E-02 3.580E-02 
4.000E+00 3.451E-06 2.892E-02 4.297E-07 1.817E-03 4.952E-05 3.079E-02 3.079E-02 
5.000E+00 2.208E-06 2.497E-02 3.252E-07 2.437E-03 9.869E-05 2.751E-02 2.751E-02 
6.000E+00 1.534E-06 2.207E-02 2.612E-07 2.996E-03 1.516E-04 2.522E-02 2.522E-02 
7.000E+00 1.127E-06 1.984E-02 2.180E-07 3.492E-03 2.044E-04 2.354E-02 2.354E-02 
8.000E+00 8.628E-07 1.806E-02 1.869E-07 3.940E-03 2.556E-04 2.225E-02 2.225E-02 
9.000E+00 6.818E-07 1.660E-02 1.635E-07 4.347E-03 3.048E-04 2.125E-02 2.125E-02 
1.000E+01 5.522E-07 1.538E-02 1.453E-07 4.715E-03 3.516E-04 2.045E-02 2.045E-02 
1.100E+01 4.563E-07 1.434E-02 1.308E-07 5.053E-03 3.961E-04 1.979E-02 1.979E-02 
1.200E+01 3.834E-07 1.345E-02 1.188E-07 5.360E-03 4.381E-04 1.925E-02 1.925E-02 
1.300E+01 3.267E-07 1.267E-02 1.089E-07 5.648E-03 4.780E-04 1.880E-02 1.880E-02 
1.400E+01 2.817E-07 1.199E-02 1.004E-07 5.914E-03 5.158E-04 1.842E-02 1.842E-02 
1.500E+01 2.454E-07 1.138E-02 9.323E-08 6.165E-03 5.518E-04 1.810E-02 1.810E-02 
1.600E+01 2.157E-07 1.084E-02 8.701E-08 6.400E-03 5.862E-04 1.783E-02 1.783E-02 
1.800E+01 1.704E-07 9.907E-03 7.670E-08 6.828E-03 6.501E-04 1.739E-02 1.739E-02 
2.000E+01 1.380E-07 9.135E-03 6.860E-08 7.212E-03 7.085E-04 1.706E-02 1.706E-02 
2.200E+01 1.141E-07 8.486E-03 6.202E-08 7.563E-03 7.626E-04 1.681E-02 1.681E-02 
2.400E+01 9.586E-08 7.928E-03 5.659E-08 7.879E-03 8.124E-04 1.662E-02 1.662E-02 
2.600E+01 8.167E-08 7.446E-03 5.204E-08 8.171E-03 8.587E-04 1.648E-02 1.648E-02 
2.800E+01 7.042E-08 7.025E-03 4.817E-08 8.438E-03 9.020E-04 1.637E-02 1.637E-02 
3.000E+01 6.136E-08 6.652E-03 4.483E-08 8.686E-03 9.423E-04 1.628E-02 1.628E-02 
4.000E+01 3.451E-08 5.286E-03 3.329E-08 9.707E-03 1.112E-03 1.611E-02 1.611E-02 
5.000E+01 2.208E-08 4.411E-03 2.647E-08 1.048E-02 1.245E-03 1.614E-02 1.614E-02 
6.000E+01 1.534E-08 3.801E-03 2.197E-08 1.110E-02 1.352E-03 1.625E-02 1.625E-02 
8.000E+01 8.625E-09 2.998E-03 1.640E-08 1.202E-02 1.519E-03 1.654E-02 1.654E-02 
1.000E+02 5.522E-09 2.488E-03 1.308E-08 1.270E-02 1.644E-03 1.683E-02 1.683E-02 
1.500E+02 2.453E-09 1.772E-03 8.685E-09 1.383E-02 1.861E-03 1.746E-02 1.746E-02 
2.000E+02 1.380E-09 1.389E-03 6.500E-09 1.454E-02 2.004E-03 1.793E-02 1.793E-02 
3.000E+02 6.133E-10 9.847E-04 4.324E-09 1.538E-02 2.186E-03 1.855E-02 1.855E-02 
4.000E+02 3.450E-10 7.712E-04 3.240E-09 1.588E-02 2.299E-03 1.895E-02 1.895E-02 
5.000E+02 2.208E-10 6.382E-04 2.590E-09 1.621E-02 2.378E-03 1.923E-02 1.923E-02 
6.000E+02 1.533E-10 5.467E-04 2.158E-09 1.645E-02 2.437E-03 1.943E-02 1.943E-02 
8.000E+02 8.625E-11 4.269E-04 1.618E-09 1.677E-02 2.518E-03 1.971E-02 1.971E-02 
1.000E+03 5.522E-11 3.512E-04 1.294E-09 1.698E-02 2.573E-03 1.991E-02 1.991E-02 
1.500E+03 2.453E-11 2.453E-04 8.622E-10 1.729E-02 2.655E-03 2.019E-02 2.019E-02 
2.000E+03 1.380E-11 1.898E-04 6.464E-10 1.746E-02 2.702E-03 2.035E-02 2.035E-02 
3.000E+03 6.133E-12 1.320E-04 4.309E-10 1.764E-02 2.754E-03 2.053E-02 2.053E-02 
4.000E+03 3.450E-12 1.019E-04 3.231E-10 1.774E-02 2.784E-03 2.063E-02 2.063E-02 
5.000E+03 2.208E-12 8.331E-05 2.585E-10 1.780E-02 2.803E-03 2.069E-02 2.069E-02 
6.000E+03 1.533E-12 7.065E-05 2.154E-10 1.785E-02 2.816E-03 2.073E-02 2.073E-02 
8.000E+03 8.625E-13 5.441E-05 1.615E-10 1.790E-02 2.833E-03 2.079E-02 2.079E-02 
1.000E+04 5.522E-13 4.444E-05 1.292E-10 1.794E-02 2.844E-03 2.083E-02 2.083E-02 
1.500E+04 2.453E-13 3.071E-05 8.615E-11 1.799E-02 2.859E-03 2.088E-02 2.088E-02 
2.000E+04 1.380E-13 2.361E-05 6.461E-11 1.802E-02 2.868E-03 2.091E-02 2.091E-02 
3.000E+04 6.133E-14 1.628E-05 4.307E-11 1.805E-02 2.877E-03 2.094E-02 2.094E-02 
4.000E+04 3.450E-14 1.250E-05 3.230E-11 1.806E-02 2.882E-03 2.096E-02 2.096E-02 
5.000E+04 2.208E-14 1.018E-05 2.584E-11 1.807E-02 2.885E-03 2.097E-02 2.097E-02 
6.000E+04 1.533E-14 8.603E-06 2.154E-11 1.808E-02 2.887E-03 2.097E-02 2.097E-02 
8.000E+04 8.625E-15 6.597E-06 1.615E-11 1.809E-02 2.890E-03 2.098E-02 2.098E-02 
1.000E+05 5.522E-15 5.368E-06 1.292E-11 1.809E-02 2.891E-03 2.099E-02 2.099E-02  
