Photon    Coherent Incoher. Photoel. Nuclear  Electron Tot. w/  Tot. wo/ 
Energy    Scatter. Scatter. Absorb.  Pr. Prd. Pr. Prd. Coherent Coherent 

1.000E-03 1.348E+00 1.328E-02 3.830E+03 0.000E+00 0.000E+00 3.831E+03 3.830E+03 
1.072E-03 1.333E+00 1.502E-02 3.181E+03 0.000E+00 0.000E+00 3.183E+03 3.181E+03 
1.072E-03 1.333E+00 1.502E-02 3.192E+03 0.000E+00 0.000E+00 3.194E+03 3.192E+03 
1.183E-03 1.310E+00 1.787E-02 2.456E+03 0.000E+00 0.000E+00 2.457E+03 2.456E+03 
1.305E-03 1.285E+00 2.120E-02 1.886E+03 0.000E+00 0.000E+00 1.887E+03 1.886E+03 
1.305E-03 1.285E+00 2.120E-02 1.886E+03 0.000E+00 0.000E+00 1.888E+03 1.886E+03 
1.500E-03 1.242E+00 2.681E-02 1.292E+03 0.000E+00 0.000E+00 1.293E+03 1.292E+03 
1.839E-03 1.161E+00 3.696E-02 7.329E+02 0.000E+00 0.000E+00 7.340E+02 7.329E+02 
1.839E-03 1.161E+00 3.696E-02 7.329E+02 0.000E+00 0.000E+00 7.341E+02 7.330E+02 
2.000E-03 1.121E+00 4.184E-02 5.781E+02 0.000E+00 0.000E+00 5.792E+02 5.781E+02 
2.145E-03 1.084E+00 4.622E-02 4.734E+02 0.000E+00 0.000E+00 4.745E+02 4.734E+02 
2.145E-03 1.084E+00 4.622E-02 4.742E+02 0.000E+00 0.000E+00 4.753E+02 4.742E+02 
2.303E-03 1.045E+00 5.092E-02 3.872E+02 0.000E+00 0.000E+00 3.883E+02 3.873E+02 
2.472E-03 1.004E+00 5.587E-02 3.159E+02 0.000E+00 0.000E+00 3.169E+02 3.159E+02 
2.472E-03 1.004E+00 5.587E-02 3.193E+02 0.000E+00 0.000E+00 3.204E+02 3.193E+02 
2.641E-03 9.632E-01 6.071E-02 2.638E+02 0.000E+00 0.000E+00 2.648E+02 2.638E+02 
2.822E-03 9.211E-01 6.573E-02 2.177E+02 0.000E+00 0.000E+00 2.187E+02 2.177E+02 
2.822E-03 9.211E-01 6.573E-02 2.217E+02 0.000E+00 0.000E+00 2.227E+02 2.218E+02 
3.000E-03 8.811E-01 7.047E-02 1.859E+02 0.000E+00 0.000E+00 1.868E+02 1.860E+02 
3.607E-03 7.559E-01 8.528E-02 1.083E+02 0.000E+00 0.000E+00 1.091E+02 1.083E+02 
3.607E-03 7.559E-01 8.528E-02 1.100E+02 0.000E+00 0.000E+00 1.108E+02 1.101E+02 
4.000E-03 6.854E-01 9.369E-02 8.100E+01 0.000E+00 0.000E+00 8.178E+01 8.110E+01 
4.038E-03 6.789E-01 9.446E-02 7.875E+01 0.000E+00 0.000E+00 7.953E+01 7.885E+01 
4.038E-03 6.789E-01 9.446E-02 7.881E+01 0.000E+00 0.000E+00 7.958E+01 7.890E+01 
5.000E-03 5.402E-01 1.114E-01 4.163E+01 0.000E+00 0.000E+00 4.228E+01 4.174E+01 
6.000E-03 4.355E-01 1.246E-01 2.398E+01 0.000E+00 0.000E+00 2.454E+01 2.411E+01 
7.112E-03 3.521E-01 1.355E-01 1.427E+01 0.000E+00 0.000E+00 1.476E+01 1.440E+01 
7.112E-03 3.521E-01 1.355E-01 1.443E+01 0.000E+00 0.000E+00 1.492E+01 1.457E+01 
8.000E-03 3.026E-01 1.423E-01 1.006E+01 0.000E+00 0.000E+00 1.050E+01 1.020E+01 
1.000E-02 2.260E-01 1.532E-01 5.043E+00 0.000E+00 0.000E+00 5.422E+00 5.196E+00 
1.200E-02 1.775E-01 1.606E-01 2.852E+00 0.000E+00 0.000E+00 3.190E+00 3.013E+00 
1.400E-02 1.443E-01 1.660E-01 1.755E+00 0.000E+00 0.000E+00 2.066E+00 1.921E+00 
1.500E-02 1.313E-01 1.682E-01 1.411E+00 0.000E+00 0.000E+00 1.711E+00 1.579E+00 
1.600E-02 1.201E-01 1.701E-01 1.150E+00 0.000E+00 0.000E+00 1.440E+00 1.320E+00 
1.800E-02 1.017E-01 1.732E-01 7.906E-01 0.000E+00 0.000E+00 1.066E+00 9.638E-01 
2.000E-02 8.721E-02 1.757E-01 5.646E-01 0.000E+00 0.000E+00 8.276E-01 7.403E-01 
2.200E-02 7.558E-02 1.776E-01 4.160E-01 0.000E+00 0.000E+00 6.691E-01 5.935E-01 
2.400E-02 6.609E-02 1.790E-01 3.144E-01 0.000E+00 0.000E+00 5.595E-01 4.934E-01 
2.600E-02 5.825E-02 1.800E-01 2.429E-01 0.000E+00 0.000E+00 4.812E-01 4.229E-01 
2.800E-02 5.169E-02 1.808E-01 1.912E-01 0.000E+00 0.000E+00 4.236E-01 3.719E-01 
3.000E-02 4.616E-02 1.813E-01 1.529E-01 0.000E+00 0.000E+00 3.803E-01 3.341E-01 
3.200E-02 4.145E-02 1.815E-01 1.240E-01 0.000E+00 0.000E+00 3.470E-01 3.055E-01 
3.400E-02 3.741E-02 1.816E-01 1.018E-01 0.000E+00 0.000E+00 3.209E-01 2.835E-01 
3.600E-02 3.393E-02 1.816E-01 8.456E-02 0.000E+00 0.000E+00 3.001E-01 2.661E-01 
3.800E-02 3.091E-02 1.814E-01 7.091E-02 0.000E+00 0.000E+00 2.832E-01 2.523E-01 
4.000E-02 2.827E-02 1.811E-01 6.000E-02 0.000E+00 0.000E+00 2.694E-01 2.411E-01 
4.200E-02 2.596E-02 1.807E-01 5.117E-02 0.000E+00 0.000E+00 2.579E-01 2.319E-01 
4.400E-02 2.391E-02 1.803E-01 4.396E-02 0.000E+00 0.000E+00 2.482E-01 2.243E-01 
4.600E-02 2.210E-02 1.798E-01 3.801E-02 0.000E+00 0.000E+00 2.399E-01 2.178E-01 
4.800E-02 2.049E-02 1.793E-01 3.307E-02 0.000E+00 0.000E+00 2.328E-01 2.123E-01 
5.000E-02 1.905E-02 1.787E-01 2.894E-02 0.000E+00 0.000E+00 2.267E-01 2.076E-01 
5.200E-02 1.775E-02 1.781E-01 2.545E-02 0.000E+00 0.000E+00 2.213E-01 2.035E-01 
5.400E-02 1.659E-02 1.774E-01 2.249E-02 0.000E+00 0.000E+00 2.165E-01 1.999E-01 
5.600E-02 1.553E-02 1.768E-01 1.996E-02 0.000E+00 0.000E+00 2.123E-01 1.967E-01 
5.800E-02 1.457E-02 1.761E-01 1.779E-02 0.000E+00 0.000E+00 2.085E-01 1.939E-01 
6.000E-02 1.370E-02 1.754E-01 1.592E-02 0.000E+00 0.000E+00 2.050E-01 1.913E-01 
6.200E-02 1.290E-02 1.747E-01 1.429E-02 0.000E+00 0.000E+00 2.019E-01 1.890E-01 
6.400E-02 1.217E-02 1.740E-01 1.288E-02 0.000E+00 0.000E+00 1.990E-01 1.869E-01 
6.600E-02 1.150E-02 1.733E-01 1.164E-02 0.000E+00 0.000E+00 1.964E-01 1.849E-01 
6.800E-02 1.088E-02 1.726E-01 1.056E-02 0.000E+00 0.000E+00 1.940E-01 1.831E-01 
7.000E-02 1.031E-02 1.718E-01 9.598E-03 0.000E+00 0.000E+00 1.917E-01 1.814E-01 
7.200E-02 9.784E-03 1.711E-01 8.751E-03 0.000E+00 0.000E+00 1.896E-01 1.798E-01 
7.400E-02 9.297E-03 1.704E-01 7.998E-03 0.000E+00 0.000E+00 1.877E-01 1.784E-01 
7.600E-02 8.845E-03 1.696E-01 7.328E-03 0.000E+00 0.000E+00 1.858E-01 1.770E-01 
7.800E-02 8.425E-03 1.689E-01 6.729E-03 0.000E+00 0.000E+00 1.841E-01 1.756E-01 
8.000E-02 8.034E-03 1.682E-01 6.192E-03 0.000E+00 0.000E+00 1.824E-01 1.744E-01 
8.200E-02 7.670E-03 1.674E-01 5.710E-03 0.000E+00 0.000E+00 1.808E-01 1.732E-01 
8.400E-02 7.329E-03 1.667E-01 5.276E-03 0.000E+00 0.000E+00 1.793E-01 1.720E-01 
8.600E-02 7.011E-03 1.660E-01 4.884E-03 0.000E+00 0.000E+00 1.779E-01 1.709E-01 
8.800E-02 6.713E-03 1.653E-01 4.529E-03 0.000E+00 0.000E+00 1.765E-01 1.698E-01 
9.000E-02 6.433E-03 1.646E-01 4.207E-03 0.000E+00 0.000E+00 1.752E-01 1.688E-01 
9.200E-02 6.170E-03 1.639E-01 3.915E-03 0.000E+00 0.000E+00 1.740E-01 1.678E-01 
9.400E-02 5.923E-03 1.632E-01 3.648E-03 0.000E+00 0.000E+00 1.728E-01 1.668E-01 
9.600E-02 5.690E-03 1.625E-01 3.405E-03 0.000E+00 0.000E+00 1.716E-01 1.659E-01 
9.800E-02 5.471E-03 1.618E-01 3.182E-03 0.000E+00 0.000E+00 1.705E-01 1.650E-01 
1.000E-01 5.264E-03 1.611E-01 2.978E-03 0.000E+00 0.000E+00 1.694E-01 1.641E-01 
1.020E-01 5.068E-03 1.604E-01 2.791E-03 0.000E+00 0.000E+00 1.683E-01 1.632E-01 
1.040E-01 4.883E-03 1.598E-01 2.619E-03 0.000E+00 0.000E+00 1.673E-01 1.624E-01 
1.060E-01 4.708E-03 1.591E-01 2.461E-03 0.000E+00 0.000E+00 1.663E-01 1.616E-01 
1.080E-01 4.542E-03 1.585E-01 2.315E-03 0.000E+00 0.000E+00 1.653E-01 1.608E-01 
1.100E-01 4.385E-03 1.578E-01 2.180E-03 0.000E+00 0.000E+00 1.644E-01 1.600E-01 
1.120E-01 4.235E-03 1.572E-01 2.055E-03 0.000E+00 0.000E+00 1.634E-01 1.592E-01 
1.140E-01 4.094E-03 1.565E-01 1.940E-03 0.000E+00 0.000E+00 1.625E-01 1.585E-01 
1.160E-01 3.959E-03 1.559E-01 1.833E-03 0.000E+00 0.000E+00 1.617E-01 1.577E-01 
1.180E-01 3.830E-03 1.553E-01 1.733E-03 0.000E+00 0.000E+00 1.608E-01 1.570E-01 
1.200E-01 3.708E-03 1.546E-01 1.641E-03 0.000E+00 0.000E+00 1.600E-01 1.563E-01 
1.220E-01 3.591E-03 1.540E-01 1.554E-03 0.000E+00 0.000E+00 1.592E-01 1.556E-01 
1.240E-01 3.480E-03 1.534E-01 1.474E-03 0.000E+00 0.000E+00 1.584E-01 1.549E-01 
1.260E-01 3.374E-03 1.528E-01 1.399E-03 0.000E+00 0.000E+00 1.576E-01 1.542E-01 
1.280E-01 3.272E-03 1.522E-01 1.329E-03 0.000E+00 0.000E+00 1.568E-01 1.535E-01 
1.300E-01 3.175E-03 1.516E-01 1.264E-03 0.000E+00 0.000E+00 1.560E-01 1.529E-01 
1.320E-01 3.083E-03 1.510E-01 1.202E-03 0.000E+00 0.000E+00 1.553E-01 1.522E-01 
1.340E-01 2.994E-03 1.504E-01 1.145E-03 0.000E+00 0.000E+00 1.546E-01 1.516E-01 
1.360E-01 2.909E-03 1.499E-01 1.091E-03 0.000E+00 0.000E+00 1.539E-01 1.510E-01 
1.380E-01 2.827E-03 1.493E-01 1.041E-03 0.000E+00 0.000E+00 1.532E-01 1.503E-01 
1.400E-01 2.749E-03 1.487E-01 9.931E-04 0.000E+00 0.000E+00 1.525E-01 1.497E-01 
1.420E-01 2.674E-03 1.482E-01 9.484E-04 0.000E+00 0.000E+00 1.518E-01 1.491E-01 
1.440E-01 2.602E-03 1.476E-01 9.063E-04 0.000E+00 0.000E+00 1.511E-01 1.485E-01 
1.460E-01 2.533E-03 1.471E-01 8.667E-04 0.000E+00 0.000E+00 1.505E-01 1.479E-01 
1.480E-01 2.467E-03 1.465E-01 8.293E-04 0.000E+00 0.000E+00 1.498E-01 1.474E-01 
1.500E-01 2.403E-03 1.460E-01 7.940E-04 0.000E+00 0.000E+00 1.492E-01 1.468E-01 
1.520E-01 2.342E-03 1.455E-01 7.607E-04 0.000E+00 0.000E+00 1.486E-01 1.462E-01 
1.540E-01 2.283E-03 1.449E-01 7.292E-04 0.000E+00 0.000E+00 1.479E-01 1.457E-01 
1.560E-01 2.226E-03 1.444E-01 6.994E-04 0.000E+00 0.000E+00 1.473E-01 1.451E-01 
1.580E-01 2.171E-03 1.439E-01 6.711E-04 0.000E+00 0.000E+00 1.467E-01 1.446E-01 
1.600E-01 2.118E-03 1.434E-01 6.444E-04 0.000E+00 0.000E+00 1.461E-01 1.440E-01 
1.620E-01 2.067E-03 1.429E-01 6.191E-04 0.000E+00 0.000E+00 1.456E-01 1.435E-01 
1.640E-01 2.018E-03 1.424E-01 5.951E-04 0.000E+00 0.000E+00 1.450E-01 1.430E-01 
1.660E-01 1.971E-03 1.419E-01 5.723E-04 0.000E+00 0.000E+00 1.444E-01 1.424E-01 
1.680E-01 1.925E-03 1.414E-01 5.506E-04 0.000E+00 0.000E+00 1.439E-01 1.419E-01 
1.700E-01 1.881E-03 1.409E-01 5.301E-04 0.000E+00 0.000E+00 1.433E-01 1.414E-01 
1.720E-01 1.838E-03 1.404E-01 5.105E-04 0.000E+00 0.000E+00 1.428E-01 1.409E-01 
1.740E-01 1.797E-03 1.399E-01 4.919E-04 0.000E+00 0.000E+00 1.422E-01 1.404E-01 
1.760E-01 1.757E-03 1.395E-01 4.742E-04 0.000E+00 0.000E+00 1.417E-01 1.399E-01 
1.780E-01 1.718E-03 1.390E-01 4.573E-04 0.000E+00 0.000E+00 1.412E-01 1.394E-01 
1.800E-01 1.681E-03 1.385E-01 4.412E-04 0.000E+00 0.000E+00 1.406E-01 1.390E-01 
1.820E-01 1.645E-03 1.381E-01 4.259E-04 0.000E+00 0.000E+00 1.401E-01 1.385E-01 
1.840E-01 1.610E-03 1.376E-01 4.112E-04 0.000E+00 0.000E+00 1.396E-01 1.380E-01 
1.860E-01 1.576E-03 1.371E-01 3.973E-04 0.000E+00 0.000E+00 1.391E-01 1.375E-01 
1.880E-01 1.543E-03 1.367E-01 3.839E-04 0.000E+00 0.000E+00 1.386E-01 1.371E-01 
1.900E-01 1.511E-03 1.363E-01 3.712E-04 0.000E+00 0.000E+00 1.381E-01 1.366E-01 
1.920E-01 1.480E-03 1.358E-01 3.590E-04 0.000E+00 0.000E+00 1.377E-01 1.362E-01 
1.940E-01 1.450E-03 1.354E-01 3.473E-04 0.000E+00 0.000E+00 1.372E-01 1.357E-01 
1.960E-01 1.421E-03 1.349E-01 3.362E-04 0.000E+00 0.000E+00 1.367E-01 1.353E-01 
1.980E-01 1.393E-03 1.345E-01 3.255E-04 0.000E+00 0.000E+00 1.362E-01 1.348E-01 
2.000E-01 1.366E-03 1.341E-01 3.152E-04 0.000E+00 0.000E+00 1.358E-01 1.344E-01 
2.020E-01 1.339E-03 1.337E-01 3.054E-04 0.000E+00 0.000E+00 1.353E-01 1.340E-01 
3.000E-01 6.119E-04 1.168E-01 8.957E-05 0.000E+00 0.000E+00 1.175E-01 1.169E-01 
4.000E-01 3.452E-04 1.048E-01 3.847E-05 0.000E+00 0.000E+00 1.052E-01 1.048E-01 
5.000E-01 2.212E-04 9.573E-02 2.078E-05 0.000E+00 0.000E+00 9.598E-02 9.576E-02 
6.000E-01 1.537E-04 8.857E-02 1.296E-05 0.000E+00 0.000E+00 8.873E-02 8.858E-02 
8.000E-01 8.655E-05 7.783E-02 6.545E-06 0.000E+00 0.000E+00 7.793E-02 7.784E-02 
1.000E+00 5.540E-05 7.000E-02 4.069E-06 0.000E+00 0.000E+00 7.006E-02 7.001E-02 
1.022E+00 5.305E-05 6.926E-02 3.801E-06 0.000E+00 0.000E+00 6.932E-02 6.927E-02 
1.250E+00 3.548E-05 6.259E-02 2.579E-06 1.753E-05 0.000E+00 6.265E-02 6.261E-02 
1.500E+00 2.463E-05 5.689E-02 1.870E-06 9.689E-05 0.000E+00 5.701E-02 5.699E-02 
2.000E+00 1.386E-05 4.856E-02 1.174E-06 3.855E-04 0.000E+00 4.896E-02 4.894E-02 
2.044E+00 1.327E-05 4.794E-02 1.135E-06 4.155E-04 0.000E+00 4.837E-02 4.836E-02 
3.000E+00 6.160E-06 3.819E-02 6.536E-07 1.102E-03 1.336E-05 3.932E-02 3.931E-02 
4.000E+00 3.465E-06 3.186E-02 4.477E-07 1.787E-03 5.456E-05 3.371E-02 3.370E-02 
5.000E+00 2.217E-06 2.751E-02 3.390E-07 2.398E-03 1.087E-04 3.002E-02 3.002E-02 
6.000E+00 1.540E-06 2.432E-02 2.723E-07 2.946E-03 1.670E-04 2.743E-02 2.743E-02 
7.000E+00 1.131E-06 2.186E-02 2.273E-07 3.434E-03 2.251E-04 2.552E-02 2.552E-02 
8.000E+00 8.662E-07 1.989E-02 1.949E-07 3.874E-03 2.816E-04 2.405E-02 2.405E-02 
9.000E+00 6.845E-07 1.829E-02 1.706E-07 4.275E-03 3.358E-04 2.290E-02 2.290E-02 
1.000E+01 5.544E-07 1.694E-02 1.516E-07 4.636E-03 3.874E-04 2.197E-02 2.197E-02 
1.100E+01 4.581E-07 1.580E-02 1.364E-07 4.966E-03 4.364E-04 2.121E-02 2.120E-02 
1.200E+01 3.849E-07 1.482E-02 1.240E-07 5.268E-03 4.827E-04 2.057E-02 2.057E-02 
1.300E+01 3.280E-07 1.396E-02 1.136E-07 5.551E-03 5.266E-04 2.004E-02 2.004E-02 
1.400E+01 2.828E-07 1.321E-02 1.048E-07 5.813E-03 5.684E-04 1.959E-02 1.959E-02 
1.500E+01 2.464E-07 1.254E-02 9.729E-08 6.058E-03 6.078E-04 1.921E-02 1.921E-02 
1.600E+01 2.165E-07 1.194E-02 9.077E-08 6.289E-03 6.459E-04 1.888E-02 1.888E-02 
1.800E+01 1.711E-07 1.091E-02 8.005E-08 6.711E-03 7.163E-04 1.834E-02 1.834E-02 
2.000E+01 1.386E-07 1.006E-02 7.157E-08 7.089E-03 7.806E-04 1.793E-02 1.793E-02 
2.200E+01 1.146E-07 9.348E-03 6.473E-08 7.434E-03 8.402E-04 1.762E-02 1.762E-02 
2.400E+01 9.625E-08 8.736E-03 5.907E-08 7.747E-03 8.950E-04 1.738E-02 1.738E-02 
2.600E+01 8.202E-08 8.202E-03 5.432E-08 8.033E-03 9.460E-04 1.718E-02 1.718E-02 
2.800E+01 7.070E-08 7.737E-03 5.027E-08 8.299E-03 9.938E-04 1.703E-02 1.703E-02 
3.000E+01 6.160E-08 7.327E-03 4.680E-08 8.544E-03 1.038E-03 1.691E-02 1.691E-02 
4.000E+01 3.465E-08 5.821E-03 3.475E-08 9.545E-03 1.226E-03 1.659E-02 1.659E-02 
5.000E+01 2.217E-08 4.860E-03 2.764E-08 1.031E-02 1.372E-03 1.654E-02 1.654E-02 
6.000E+01 1.540E-08 4.186E-03 2.294E-08 1.091E-02 1.492E-03 1.659E-02 1.659E-02 
8.000E+01 8.662E-09 3.302E-03 1.712E-08 1.183E-02 1.677E-03 1.681E-02 1.681E-02 
1.000E+02 5.544E-09 2.741E-03 1.365E-08 1.250E-02 1.817E-03 1.706E-02 1.706E-02 
1.500E+02 2.464E-09 1.952E-03 9.065E-09 1.361E-02 2.061E-03 1.763E-02 1.763E-02 
2.000E+02 1.386E-09 1.530E-03 6.787E-09 1.430E-02 2.222E-03 1.805E-02 1.805E-02 
3.000E+02 6.159E-10 1.085E-03 4.514E-09 1.513E-02 2.430E-03 1.864E-02 1.864E-02 
4.000E+02 3.465E-10 8.495E-04 3.383E-09 1.562E-02 2.559E-03 1.902E-02 1.902E-02 
5.000E+02 2.217E-10 7.033E-04 2.705E-09 1.594E-02 2.650E-03 1.929E-02 1.929E-02 
6.000E+02 1.540E-10 6.023E-04 2.253E-09 1.617E-02 2.717E-03 1.949E-02 1.949E-02 
8.000E+02 8.662E-11 4.703E-04 1.689E-09 1.648E-02 2.812E-03 1.977E-02 1.977E-02 
1.000E+03 5.544E-11 3.869E-04 1.351E-09 1.669E-02 2.875E-03 1.995E-02 1.995E-02 
1.500E+03 2.464E-11 2.702E-04 9.001E-10 1.699E-02 2.971E-03 2.023E-02 2.023E-02 
2.000E+03 1.386E-11 2.091E-04 6.750E-10 1.715E-02 3.026E-03 2.039E-02 2.039E-02 
3.000E+03 6.159E-12 1.454E-04 4.499E-10 1.733E-02 3.086E-03 2.056E-02 2.056E-02 
4.000E+03 3.465E-12 1.122E-04 3.374E-10 1.743E-02 3.121E-03 2.066E-02 2.066E-02 
5.000E+03 2.217E-12 9.178E-05 2.699E-10 1.749E-02 3.144E-03 2.072E-02 2.072E-02 
6.000E+03 1.540E-12 7.783E-05 2.249E-10 1.753E-02 3.159E-03 2.077E-02 2.077E-02 
8.000E+03 8.662E-13 5.994E-05 1.686E-10 1.758E-02 3.179E-03 2.082E-02 2.082E-02 
1.000E+04 5.544E-13 4.894E-05 1.349E-10 1.762E-02 3.193E-03 2.086E-02 2.086E-02 
1.500E+04 2.464E-13 3.383E-05 8.994E-11 1.767E-02 3.210E-03 2.091E-02 2.091E-02 
2.000E+04 1.386E-13 2.601E-05 6.746E-11 1.770E-02 3.220E-03 2.094E-02 2.094E-02 
3.000E+04 6.159E-14 1.794E-05 4.498E-11 1.772E-02 3.231E-03 2.097E-02 2.097E-02 
4.000E+04 3.465E-14 1.377E-05 3.373E-11 1.774E-02 3.237E-03 2.099E-02 2.099E-02 
5.000E+04 2.217E-14 1.121E-05 2.698E-11 1.775E-02 3.241E-03 2.100E-02 2.100E-02 
6.000E+04 1.540E-14 9.480E-06 2.248E-11 1.775E-02 3.244E-03 2.101E-02 2.101E-02 
8.000E+04 8.662E-15 7.269E-06 1.686E-11 1.776E-02 3.246E-03 2.101E-02 2.101E-02 
1.000E+05 5.544E-15 5.912E-06 1.349E-11 1.777E-02 3.248E-03 2.102E-02 2.102E-02  
