Photon    Coherent Incoher. Photoel. Nuclear  Electron Tot. w/  Tot. wo/ 
Energy    Scatter. Scatter. Absorb.  Pr. Prd. Pr. Prd. Coherent Coherent 

1.000E-03 1.695E+00 1.355E-02 3.441E+03 0.000E+00 0.000E+00 3.442E+03 3.441E+03 
1.305E-03 1.604E+00 2.099E-02 1.688E+03 0.000E+00 0.000E+00 1.689E+03 1.688E+03 
1.305E-03 1.604E+00 2.099E-02 1.698E+03 0.000E+00 0.000E+00 1.699E+03 1.698E+03 
1.500E-03 1.545E+00 2.614E-02 1.165E+03 0.000E+00 0.000E+00 1.166E+03 1.165E+03 
2.000E-03 1.389E+00 3.962E-02 5.239E+02 0.000E+00 0.000E+00 5.254E+02 5.240E+02 
2.145E-03 1.344E+00 4.352E-02 4.296E+02 0.000E+00 0.000E+00 4.310E+02 4.297E+02 
2.145E-03 1.344E+00 4.352E-02 5.853E+02 0.000E+00 0.000E+00 5.867E+02 5.853E+02 
2.303E-03 1.297E+00 4.767E-02 4.841E+02 0.000E+00 0.000E+00 4.854E+02 4.841E+02 
2.472E-03 1.247E+00 5.205E-02 4.001E+02 0.000E+00 0.000E+00 4.014E+02 4.002E+02 
2.472E-03 1.247E+00 5.205E-02 4.038E+02 0.000E+00 0.000E+00 4.051E+02 4.039E+02 
3.000E-03 1.105E+00 6.492E-02 2.385E+02 0.000E+00 0.000E+00 2.397E+02 2.386E+02 
4.000E-03 8.814E-01 8.539E-02 1.059E+02 0.000E+00 0.000E+00 1.069E+02 1.060E+02 
4.038E-03 8.740E-01 8.607E-02 1.031E+02 0.000E+00 0.000E+00 1.040E+02 1.031E+02 
4.038E-03 8.740E-01 8.607E-02 2.360E+02 0.000E+00 0.000E+00 2.370E+02 2.361E+02 
5.000E-03 7.157E-01 1.010E-01 1.346E+02 0.000E+00 0.000E+00 1.354E+02 1.347E+02 
6.000E-03 5.943E-01 1.128E-01 8.175E+01 0.000E+00 0.000E+00 8.246E+01 8.186E+01 
8.000E-03 4.348E-01 1.292E-01 3.672E+01 0.000E+00 0.000E+00 3.728E+01 3.685E+01 
1.000E-02 3.371E-01 1.399E-01 1.945E+01 0.000E+00 0.000E+00 1.993E+01 1.959E+01 
1.200E-02 2.710E-01 1.476E-01 1.148E+01 0.000E+00 0.000E+00 1.190E+01 1.163E+01 
1.400E-02 2.231E-01 1.534E-01 7.311E+00 0.000E+00 0.000E+00 7.687E+00 7.464E+00 
1.500E-02 2.037E-01 1.558E-01 5.966E+00 0.000E+00 0.000E+00 6.325E+00 6.121E+00 
1.600E-02 1.867E-01 1.579E-01 4.928E+00 0.000E+00 0.000E+00 5.273E+00 5.086E+00 
1.800E-02 1.583E-01 1.615E-01 3.471E+00 0.000E+00 0.000E+00 3.791E+00 3.633E+00 
2.000E-02 1.358E-01 1.644E-01 2.531E+00 0.000E+00 0.000E+00 2.832E+00 2.696E+00 
2.200E-02 1.177E-01 1.665E-01 1.899E+00 0.000E+00 0.000E+00 2.184E+00 2.066E+00 
2.400E-02 1.030E-01 1.682E-01 1.459E+00 0.000E+00 0.000E+00 1.731E+00 1.628E+00 
2.600E-02 9.091E-02 1.695E-01 1.144E+00 0.000E+00 0.000E+00 1.404E+00 1.313E+00 
2.800E-02 8.083E-02 1.704E-01 9.124E-01 0.000E+00 0.000E+00 1.164E+00 1.083E+00 
3.000E-02 7.235E-02 1.711E-01 7.386E-01 0.000E+00 0.000E+00 9.820E-01 9.097E-01 
3.200E-02 6.516E-02 1.715E-01 6.058E-01 0.000E+00 0.000E+00 8.424E-01 7.773E-01 
3.400E-02 5.901E-02 1.718E-01 5.026E-01 0.000E+00 0.000E+00 7.334E-01 6.744E-01 
3.600E-02 5.370E-02 1.719E-01 4.213E-01 0.000E+00 0.000E+00 6.468E-01 5.931E-01 
3.800E-02 4.908E-02 1.718E-01 3.564E-01 0.000E+00 0.000E+00 5.773E-01 5.282E-01 
4.000E-02 4.505E-02 1.717E-01 3.040E-01 0.000E+00 0.000E+00 5.207E-01 4.757E-01 
4.200E-02 4.149E-02 1.715E-01 2.612E-01 0.000E+00 0.000E+00 4.742E-01 4.327E-01 
4.400E-02 3.835E-02 1.712E-01 2.260E-01 0.000E+00 0.000E+00 4.355E-01 3.972E-01 
4.600E-02 3.555E-02 1.708E-01 1.967E-01 0.000E+00 0.000E+00 4.031E-01 3.676E-01 
4.800E-02 3.305E-02 1.704E-01 1.722E-01 0.000E+00 0.000E+00 3.757E-01 3.427E-01 
5.000E-02 3.080E-02 1.700E-01 1.516E-01 0.000E+00 0.000E+00 3.524E-01 3.216E-01 
5.200E-02 2.878E-02 1.695E-01 1.341E-01 0.000E+00 0.000E+00 3.323E-01 3.036E-01 
5.400E-02 2.694E-02 1.690E-01 1.191E-01 0.000E+00 0.000E+00 3.150E-01 2.881E-01 
5.600E-02 2.528E-02 1.684E-01 1.063E-01 0.000E+00 0.000E+00 3.000E-01 2.747E-01 
5.800E-02 2.377E-02 1.678E-01 9.520E-02 0.000E+00 0.000E+00 2.868E-01 2.630E-01 
6.000E-02 2.238E-02 1.672E-01 8.557E-02 0.000E+00 0.000E+00 2.752E-01 2.528E-01 
6.200E-02 2.112E-02 1.666E-01 7.718E-02 0.000E+00 0.000E+00 2.649E-01 2.438E-01 
6.400E-02 1.995E-02 1.660E-01 6.984E-02 0.000E+00 0.000E+00 2.558E-01 2.359E-01 
6.600E-02 1.888E-02 1.654E-01 6.338E-02 0.000E+00 0.000E+00 2.477E-01 2.288E-01 
6.800E-02 1.789E-02 1.648E-01 5.768E-02 0.000E+00 0.000E+00 2.403E-01 2.224E-01 
7.000E-02 1.698E-02 1.641E-01 5.264E-02 0.000E+00 0.000E+00 2.337E-01 2.168E-01 
7.200E-02 1.613E-02 1.635E-01 4.816E-02 0.000E+00 0.000E+00 2.278E-01 2.116E-01 
7.400E-02 1.535E-02 1.628E-01 4.417E-02 0.000E+00 0.000E+00 2.223E-01 2.070E-01 
7.600E-02 1.462E-02 1.622E-01 4.059E-02 0.000E+00 0.000E+00 2.174E-01 2.028E-01 
7.800E-02 1.394E-02 1.615E-01 3.739E-02 0.000E+00 0.000E+00 2.129E-01 1.989E-01 
8.000E-02 1.331E-02 1.609E-01 3.452E-02 0.000E+00 0.000E+00 2.087E-01 1.954E-01 
8.200E-02 1.272E-02 1.602E-01 3.192E-02 0.000E+00 0.000E+00 2.049E-01 1.921E-01 
8.400E-02 1.216E-02 1.596E-01 2.958E-02 0.000E+00 0.000E+00 2.013E-01 1.891E-01 
8.600E-02 1.165E-02 1.589E-01 2.746E-02 0.000E+00 0.000E+00 1.980E-01 1.864E-01 
8.800E-02 1.116E-02 1.583E-01 2.553E-02 0.000E+00 0.000E+00 1.949E-01 1.838E-01 
9.000E-02 1.070E-02 1.576E-01 2.378E-02 0.000E+00 0.000E+00 1.921E-01 1.814E-01 
9.200E-02 1.027E-02 1.570E-01 2.218E-02 0.000E+00 0.000E+00 1.894E-01 1.791E-01 
9.400E-02 9.870E-03 1.563E-01 2.072E-02 0.000E+00 0.000E+00 1.869E-01 1.770E-01 
9.600E-02 9.490E-03 1.557E-01 1.938E-02 0.000E+00 0.000E+00 1.846E-01 1.751E-01 
9.800E-02 9.130E-03 1.551E-01 1.816E-02 0.000E+00 0.000E+00 1.823E-01 1.732E-01 
1.000E-01 8.791E-03 1.544E-01 1.703E-02 0.000E+00 0.000E+00 1.802E-01 1.715E-01 
1.020E-01 8.470E-03 1.538E-01 1.600E-02 0.000E+00 0.000E+00 1.783E-01 1.698E-01 
1.040E-01 8.166E-03 1.532E-01 1.504E-02 0.000E+00 0.000E+00 1.764E-01 1.682E-01 
1.060E-01 7.879E-03 1.526E-01 1.416E-02 0.000E+00 0.000E+00 1.746E-01 1.667E-01 
1.080E-01 7.606E-03 1.520E-01 1.335E-02 0.000E+00 0.000E+00 1.729E-01 1.653E-01 
1.100E-01 7.347E-03 1.513E-01 1.260E-02 0.000E+00 0.000E+00 1.713E-01 1.639E-01 
1.120E-01 7.101E-03 1.507E-01 1.190E-02 0.000E+00 0.000E+00 1.697E-01 1.626E-01 
1.140E-01 6.867E-03 1.501E-01 1.125E-02 0.000E+00 0.000E+00 1.683E-01 1.614E-01 
1.160E-01 6.644E-03 1.496E-01 1.065E-02 0.000E+00 0.000E+00 1.668E-01 1.602E-01 
1.180E-01 6.432E-03 1.490E-01 1.009E-02 0.000E+00 0.000E+00 1.655E-01 1.591E-01 
1.200E-01 6.230E-03 1.484E-01 9.563E-03 0.000E+00 0.000E+00 1.642E-01 1.580E-01 
1.220E-01 6.038E-03 1.478E-01 9.076E-03 0.000E+00 0.000E+00 1.629E-01 1.569E-01 
1.240E-01 5.854E-03 1.472E-01 8.621E-03 0.000E+00 0.000E+00 1.617E-01 1.559E-01 
1.260E-01 5.678E-03 1.467E-01 8.196E-03 0.000E+00 0.000E+00 1.605E-01 1.549E-01 
1.280E-01 5.510E-03 1.461E-01 7.798E-03 0.000E+00 0.000E+00 1.594E-01 1.539E-01 
1.300E-01 5.349E-03 1.456E-01 7.425E-03 0.000E+00 0.000E+00 1.583E-01 1.530E-01 
1.320E-01 5.196E-03 1.450E-01 7.076E-03 0.000E+00 0.000E+00 1.573E-01 1.521E-01 
1.340E-01 5.048E-03 1.445E-01 6.748E-03 0.000E+00 0.000E+00 1.563E-01 1.512E-01 
1.360E-01 4.907E-03 1.439E-01 6.439E-03 0.000E+00 0.000E+00 1.553E-01 1.504E-01 
1.380E-01 4.772E-03 1.434E-01 6.149E-03 0.000E+00 0.000E+00 1.543E-01 1.495E-01 
1.400E-01 4.642E-03 1.429E-01 5.877E-03 0.000E+00 0.000E+00 1.534E-01 1.487E-01 
1.420E-01 4.518E-03 1.423E-01 5.620E-03 0.000E+00 0.000E+00 1.525E-01 1.479E-01 
1.440E-01 4.398E-03 1.418E-01 5.377E-03 0.000E+00 0.000E+00 1.516E-01 1.472E-01 
1.460E-01 4.283E-03 1.413E-01 5.149E-03 0.000E+00 0.000E+00 1.507E-01 1.464E-01 
1.480E-01 4.172E-03 1.408E-01 4.933E-03 0.000E+00 0.000E+00 1.499E-01 1.457E-01 
1.500E-01 4.066E-03 1.403E-01 4.729E-03 0.000E+00 0.000E+00 1.491E-01 1.450E-01 
1.520E-01 3.964E-03 1.398E-01 4.536E-03 0.000E+00 0.000E+00 1.483E-01 1.443E-01 
1.540E-01 3.865E-03 1.393E-01 4.353E-03 0.000E+00 0.000E+00 1.475E-01 1.436E-01 
1.560E-01 3.770E-03 1.388E-01 4.180E-03 0.000E+00 0.000E+00 1.467E-01 1.430E-01 
1.580E-01 3.679E-03 1.383E-01 4.016E-03 0.000E+00 0.000E+00 1.460E-01 1.423E-01 
1.600E-01 3.591E-03 1.378E-01 3.860E-03 0.000E+00 0.000E+00 1.453E-01 1.417E-01 
1.620E-01 3.506E-03 1.373E-01 3.713E-03 0.000E+00 0.000E+00 1.445E-01 1.410E-01 
1.640E-01 3.423E-03 1.368E-01 3.573E-03 0.000E+00 0.000E+00 1.438E-01 1.404E-01 
1.660E-01 3.344E-03 1.364E-01 3.439E-03 0.000E+00 0.000E+00 1.432E-01 1.398E-01 
1.680E-01 3.268E-03 1.359E-01 3.313E-03 0.000E+00 0.000E+00 1.425E-01 1.392E-01 
1.700E-01 3.194E-03 1.354E-01 3.192E-03 0.000E+00 0.000E+00 1.418E-01 1.386E-01 
1.720E-01 3.122E-03 1.350E-01 3.077E-03 0.000E+00 0.000E+00 1.412E-01 1.381E-01 
1.740E-01 3.053E-03 1.345E-01 2.968E-03 0.000E+00 0.000E+00 1.406E-01 1.375E-01 
1.760E-01 2.986E-03 1.341E-01 2.864E-03 0.000E+00 0.000E+00 1.399E-01 1.369E-01 
1.780E-01 2.921E-03 1.336E-01 2.765E-03 0.000E+00 0.000E+00 1.393E-01 1.364E-01 
1.800E-01 2.859E-03 1.332E-01 2.670E-03 0.000E+00 0.000E+00 1.387E-01 1.359E-01 
1.820E-01 2.798E-03 1.328E-01 2.579E-03 0.000E+00 0.000E+00 1.381E-01 1.353E-01 
1.840E-01 2.739E-03 1.323E-01 2.493E-03 0.000E+00 0.000E+00 1.376E-01 1.348E-01 
1.860E-01 2.683E-03 1.319E-01 2.410E-03 0.000E+00 0.000E+00 1.370E-01 1.343E-01 
1.880E-01 2.627E-03 1.315E-01 2.331E-03 0.000E+00 0.000E+00 1.364E-01 1.338E-01 
1.900E-01 2.574E-03 1.310E-01 2.256E-03 0.000E+00 0.000E+00 1.359E-01 1.333E-01 
1.920E-01 2.522E-03 1.306E-01 2.184E-03 0.000E+00 0.000E+00 1.353E-01 1.328E-01 
1.940E-01 2.472E-03 1.302E-01 2.114E-03 0.000E+00 0.000E+00 1.348E-01 1.323E-01 
1.960E-01 2.423E-03 1.298E-01 2.048E-03 0.000E+00 0.000E+00 1.343E-01 1.318E-01 
1.980E-01 2.375E-03 1.294E-01 1.985E-03 0.000E+00 0.000E+00 1.338E-01 1.314E-01 
2.000E-01 2.329E-03 1.290E-01 1.924E-03 0.000E+00 0.000E+00 1.332E-01 1.309E-01 
2.020E-01 2.285E-03 1.286E-01 1.865E-03 0.000E+00 0.000E+00 1.327E-01 1.305E-01 
3.000E-01 1.052E-03 1.125E-01 5.614E-04 0.000E+00 0.000E+00 1.141E-01 1.131E-01 
4.000E-01 5.955E-04 1.009E-01 2.448E-04 0.000E+00 0.000E+00 1.018E-01 1.012E-01 
5.000E-01 3.822E-04 9.224E-02 1.333E-04 0.000E+00 0.000E+00 9.275E-02 9.237E-02 
6.000E-01 2.659E-04 8.535E-02 8.354E-05 0.000E+00 0.000E+00 8.569E-02 8.543E-02 
8.000E-01 1.498E-04 7.500E-02 4.239E-05 0.000E+00 0.000E+00 7.520E-02 7.505E-02 
1.000E+00 9.597E-05 6.746E-02 2.635E-05 0.000E+00 0.000E+00 6.758E-02 6.749E-02 
1.022E+00 9.190E-05 6.675E-02 2.491E-05 0.000E+00 0.000E+00 6.687E-02 6.678E-02 
1.250E+00 6.146E-05 6.033E-02 1.687E-05 2.333E-05 0.000E+00 6.043E-02 6.037E-02 
1.500E+00 4.269E-05 5.483E-02 1.220E-05 1.267E-04 0.000E+00 5.501E-02 5.497E-02 
2.000E+00 2.402E-05 4.680E-02 7.575E-06 5.002E-04 0.000E+00 4.733E-02 4.730E-02 
2.044E+00 2.300E-05 4.621E-02 7.321E-06 5.390E-04 0.000E+00 4.678E-02 4.676E-02 
3.000E+00 1.068E-05 3.681E-02 4.157E-06 1.420E-03 1.288E-05 3.826E-02 3.825E-02 
4.000E+00 6.007E-06 3.071E-02 2.819E-06 2.296E-03 5.259E-05 3.307E-02 3.306E-02 
5.000E+00 3.844E-06 2.652E-02 2.121E-06 3.074E-03 1.048E-04 2.971E-02 2.970E-02 
6.000E+00 2.670E-06 2.344E-02 1.696E-06 3.773E-03 1.609E-04 2.738E-02 2.738E-02 
7.000E+00 1.961E-06 2.107E-02 1.410E-06 4.395E-03 2.170E-04 2.568E-02 2.568E-02 
8.000E+00 1.502E-06 1.917E-02 1.206E-06 4.954E-03 2.714E-04 2.440E-02 2.440E-02 
9.000E+00 1.186E-06 1.763E-02 1.053E-06 5.463E-03 3.236E-04 2.341E-02 2.341E-02 
1.000E+01 9.612E-07 1.633E-02 9.341E-07 5.923E-03 3.733E-04 2.263E-02 2.263E-02 
1.100E+01 7.943E-07 1.523E-02 8.392E-07 6.342E-03 4.205E-04 2.200E-02 2.200E-02 
1.200E+01 6.675E-07 1.429E-02 7.617E-07 6.726E-03 4.651E-04 2.148E-02 2.148E-02 
1.300E+01 5.688E-07 1.346E-02 6.972E-07 7.082E-03 5.073E-04 2.105E-02 2.105E-02 
1.400E+01 4.903E-07 1.273E-02 6.426E-07 7.415E-03 5.476E-04 2.069E-02 2.069E-02 
1.500E+01 4.271E-07 1.209E-02 5.961E-07 7.724E-03 5.856E-04 2.040E-02 2.040E-02 
1.600E+01 3.754E-07 1.151E-02 5.558E-07 8.018E-03 6.221E-04 2.015E-02 2.015E-02 
1.800E+01 2.966E-07 1.052E-02 4.893E-07 8.552E-03 6.898E-04 1.976E-02 1.976E-02 
2.000E+01 2.403E-07 9.701E-03 4.370E-07 9.029E-03 7.517E-04 1.948E-02 1.948E-02 
2.200E+01 1.986E-07 9.011E-03 3.950E-07 9.463E-03 8.089E-04 1.928E-02 1.928E-02 
2.400E+01 1.668E-07 8.421E-03 3.602E-07 9.857E-03 8.617E-04 1.914E-02 1.914E-02 
2.600E+01 1.422E-07 7.906E-03 3.309E-07 1.022E-02 9.106E-04 1.904E-02 1.904E-02 
2.800E+01 1.226E-07 7.459E-03 3.063E-07 1.055E-02 9.564E-04 1.897E-02 1.897E-02 
3.000E+01 1.068E-07 7.062E-03 2.849E-07 1.086E-02 9.991E-04 1.892E-02 1.892E-02 
4.000E+01 6.007E-08 5.612E-03 2.112E-07 1.212E-02 1.179E-03 1.892E-02 1.892E-02 
5.000E+01 3.844E-08 4.685E-03 1.678E-07 1.308E-02 1.319E-03 1.908E-02 1.908E-02 
6.000E+01 2.670E-08 4.036E-03 1.392E-07 1.383E-02 1.433E-03 1.930E-02 1.930E-02 
8.000E+01 1.502E-08 3.183E-03 1.038E-07 1.496E-02 1.609E-03 1.975E-02 1.975E-02 
1.000E+02 9.611E-09 2.642E-03 8.273E-08 1.578E-02 1.741E-03 2.016E-02 2.016E-02 
1.500E+02 4.271E-09 1.882E-03 5.491E-08 1.714E-02 1.971E-03 2.099E-02 2.099E-02 
2.000E+02 2.402E-09 1.475E-03 4.107E-08 1.797E-02 2.122E-03 2.157E-02 2.157E-02 
3.000E+02 1.068E-09 1.046E-03 2.732E-08 1.897E-02 2.316E-03 2.233E-02 2.233E-02 
4.000E+02 6.007E-10 8.189E-04 2.047E-08 1.956E-02 2.437E-03 2.282E-02 2.282E-02 
5.000E+02 3.844E-10 6.779E-04 1.636E-08 1.995E-02 2.522E-03 2.315E-02 2.315E-02 
6.000E+02 2.669E-10 5.805E-04 1.363E-08 2.023E-02 2.584E-03 2.340E-02 2.340E-02 
8.000E+02 1.502E-10 4.533E-04 1.021E-08 2.061E-02 2.673E-03 2.374E-02 2.374E-02 
1.000E+03 9.609E-11 3.729E-04 8.169E-09 2.086E-02 2.732E-03 2.397E-02 2.397E-02 
1.500E+03 4.271E-11 2.605E-04 5.444E-09 2.123E-02 2.822E-03 2.431E-02 2.431E-02 
2.000E+03 2.402E-11 2.016E-04 4.082E-09 2.143E-02 2.874E-03 2.450E-02 2.450E-02 
3.000E+03 1.068E-11 1.401E-04 2.720E-09 2.164E-02 2.930E-03 2.471E-02 2.471E-02 
4.000E+03 6.007E-12 1.082E-04 2.040E-09 2.176E-02 2.964E-03 2.483E-02 2.483E-02 
5.000E+03 3.844E-12 8.847E-05 1.632E-09 2.183E-02 2.984E-03 2.491E-02 2.491E-02 
6.000E+03 2.669E-12 7.502E-05 1.360E-09 2.188E-02 2.999E-03 2.496E-02 2.496E-02 
8.000E+03 1.502E-12 5.778E-05 1.020E-09 2.195E-02 3.018E-03 2.503E-02 2.503E-02 
1.000E+04 9.609E-13 4.718E-05 8.158E-10 2.199E-02 3.031E-03 2.507E-02 2.507E-02 
1.500E+04 4.271E-13 3.261E-05 5.438E-10 2.205E-02 3.047E-03 2.513E-02 2.513E-02 
2.000E+04 2.402E-13 2.507E-05 4.079E-10 2.209E-02 3.057E-03 2.517E-02 2.517E-02 
3.000E+04 1.068E-13 1.729E-05 2.719E-10 2.212E-02 3.067E-03 2.520E-02 2.520E-02 
4.000E+04 6.007E-14 1.327E-05 2.039E-10 2.214E-02 3.073E-03 2.522E-02 2.522E-02 
5.000E+04 3.844E-14 1.081E-05 1.632E-10 2.215E-02 3.076E-03 2.523E-02 2.523E-02 
6.000E+04 2.669E-14 9.137E-06 1.360E-10 2.215E-02 3.079E-03 2.524E-02 2.524E-02 
8.000E+04 1.502E-14 7.007E-06 1.020E-10 2.216E-02 3.081E-03 2.525E-02 2.525E-02 
1.000E+05 9.609E-15 5.699E-06 8.158E-11 2.217E-02 3.083E-03 2.526E-02 2.526E-02  
