Photon    Coherent Incoher. Photoel. Nuclear  Electron Tot. w/  Tot. wo/ 
Energy    Scatter. Scatter. Absorb.  Pr. Prd. Pr. Prd. Coherent Coherent 

1.000E-03 8.418E+00 4.688E-03 9.087E+03 0.000E+00 0.000E+00 9.096E+03 9.087E+03 
1.072E-03 8.357E+00 5.272E-03 7.858E+03 0.000E+00 0.000E+00 7.867E+03 7.858E+03 
1.072E-03 8.357E+00 5.272E-03 8.195E+03 0.000E+00 0.000E+00 8.204E+03 8.195E+03 
1.500E-03 7.958E+00 8.969E-03 3.911E+03 0.000E+00 0.000E+00 3.919E+03 3.911E+03 
2.000E-03 7.446E+00 1.342E-02 1.989E+03 0.000E+00 0.000E+00 1.997E+03 1.989E+03 
3.000E-03 6.463E+00 2.190E-02 7.355E+02 0.000E+00 0.000E+00 7.420E+02 7.356E+02 
4.000E-03 5.628E+00 2.932E-02 3.551E+02 0.000E+00 0.000E+00 3.608E+02 3.551E+02 
4.557E-03 5.229E+00 3.296E-02 2.539E+02 0.000E+00 0.000E+00 2.591E+02 2.539E+02 
4.557E-03 5.229E+00 3.296E-02 7.498E+02 0.000E+00 0.000E+00 7.550E+02 7.498E+02 
4.702E-03 5.133E+00 3.387E-02 7.027E+02 0.000E+00 0.000E+00 7.079E+02 7.027E+02 
4.852E-03 5.035E+00 3.479E-02 6.587E+02 0.000E+00 0.000E+00 6.637E+02 6.587E+02 
4.852E-03 5.035E+00 3.479E-02 8.883E+02 0.000E+00 0.000E+00 8.934E+02 8.884E+02 
5.000E-03 4.940E+00 3.568E-02 8.380E+02 0.000E+00 0.000E+00 8.430E+02 8.381E+02 
5.188E-03 4.821E+00 3.679E-02 7.616E+02 0.000E+00 0.000E+00 7.665E+02 7.617E+02 
5.188E-03 4.821E+00 3.679E-02 8.788E+02 0.000E+00 0.000E+00 8.837E+02 8.789E+02 
6.000E-03 4.356E+00 4.129E-02 6.131E+02 0.000E+00 0.000E+00 6.175E+02 6.131E+02 
8.000E-03 3.446E+00 5.106E-02 2.886E+02 0.000E+00 0.000E+00 2.921E+02 2.887E+02 
1.000E-02 2.798E+00 5.955E-02 1.597E+02 0.000E+00 0.000E+00 1.626E+02 1.598E+02 
1.200E-02 2.335E+00 6.686E-02 9.743E+01 0.000E+00 0.000E+00 9.983E+01 9.749E+01 
1.400E-02 1.987E+00 7.306E-02 6.414E+01 0.000E+00 0.000E+00 6.620E+01 6.421E+01 
1.500E-02 1.843E+00 7.578E-02 5.320E+01 0.000E+00 0.000E+00 5.511E+01 5.327E+01 
1.600E-02 1.715E+00 7.828E-02 4.451E+01 0.000E+00 0.000E+00 4.631E+01 4.459E+01 
1.800E-02 1.495E+00 8.269E-02 3.215E+01 0.000E+00 0.000E+00 3.373E+01 3.224E+01 
2.000E-02 1.312E+00 8.646E-02 2.404E+01 0.000E+00 0.000E+00 2.543E+01 2.412E+01 
2.200E-02 1.158E+00 8.972E-02 1.840E+01 0.000E+00 0.000E+00 1.965E+01 1.849E+01 
2.400E-02 1.027E+00 9.255E-02 1.442E+01 0.000E+00 0.000E+00 1.554E+01 1.451E+01 
2.600E-02 9.175E-01 9.502E-02 1.152E+01 0.000E+00 0.000E+00 1.254E+01 1.162E+01 
2.800E-02 8.245E-01 9.718E-02 9.362E+00 0.000E+00 0.000E+00 1.028E+01 9.459E+00 
3.000E-02 7.455E-01 9.908E-02 7.716E+00 0.000E+00 0.000E+00 8.561E+00 7.815E+00 
3.200E-02 6.780E-01 1.008E-01 6.429E+00 0.000E+00 0.000E+00 7.208E+00 6.529E+00 
3.317E-02 6.430E-01 1.016E-01 5.808E+00 0.000E+00 0.000E+00 6.553E+00 5.910E+00 
3.317E-02 6.430E-01 1.016E-01 3.508E+01 0.000E+00 0.000E+00 3.583E+01 3.518E+01 
3.400E-02 6.198E-01 1.022E-01 3.289E+01 0.000E+00 0.000E+00 3.362E+01 3.300E+01 
3.600E-02 5.692E-01 1.035E-01 2.834E+01 0.000E+00 0.000E+00 2.901E+01 2.844E+01 
3.800E-02 5.249E-01 1.047E-01 2.460E+01 0.000E+00 0.000E+00 2.523E+01 2.471E+01 
4.000E-02 4.859E-01 1.057E-01 2.151E+01 0.000E+00 0.000E+00 2.210E+01 2.161E+01 
4.200E-02 4.514E-01 1.066E-01 1.891E+01 0.000E+00 0.000E+00 1.947E+01 1.902E+01 
4.400E-02 4.205E-01 1.075E-01 1.672E+01 0.000E+00 0.000E+00 1.725E+01 1.683E+01 
4.600E-02 3.929E-01 1.082E-01 1.485E+01 0.000E+00 0.000E+00 1.535E+01 1.496E+01 
4.800E-02 3.679E-01 1.088E-01 1.325E+01 0.000E+00 0.000E+00 1.373E+01 1.336E+01 
5.000E-02 3.452E-01 1.093E-01 1.187E+01 0.000E+00 0.000E+00 1.232E+01 1.198E+01 
5.200E-02 3.245E-01 1.098E-01 1.067E+01 0.000E+00 0.000E+00 1.110E+01 1.078E+01 
5.400E-02 3.056E-01 1.102E-01 9.627E+00 0.000E+00 0.000E+00 1.004E+01 9.737E+00 
5.600E-02 2.883E-01 1.105E-01 8.714E+00 0.000E+00 0.000E+00 9.113E+00 8.825E+00 
5.800E-02 2.724E-01 1.108E-01 7.914E+00 0.000E+00 0.000E+00 8.297E+00 8.024E+00 
6.000E-02 2.577E-01 1.110E-01 7.208E+00 0.000E+00 0.000E+00 7.577E+00 7.319E+00 
6.200E-02 2.441E-01 1.112E-01 6.585E+00 0.000E+00 0.000E+00 6.940E+00 6.696E+00 
6.400E-02 2.316E-01 1.114E-01 6.032E+00 0.000E+00 0.000E+00 6.375E+00 6.143E+00 
6.600E-02 2.200E-01 1.115E-01 5.539E+00 0.000E+00 0.000E+00 5.871E+00 5.651E+00 
6.800E-02 2.092E-01 1.116E-01 5.099E+00 0.000E+00 0.000E+00 5.420E+00 5.211E+00 
7.000E-02 1.992E-01 1.116E-01 4.705E+00 0.000E+00 0.000E+00 5.015E+00 4.816E+00 
7.200E-02 1.899E-01 1.117E-01 4.350E+00 0.000E+00 0.000E+00 4.651E+00 4.462E+00 
7.400E-02 1.812E-01 1.117E-01 4.030E+00 0.000E+00 0.000E+00 4.323E+00 4.142E+00 
7.600E-02 1.731E-01 1.116E-01 3.741E+00 0.000E+00 0.000E+00 4.025E+00 3.852E+00 
7.800E-02 1.655E-01 1.116E-01 3.478E+00 0.000E+00 0.000E+00 3.756E+00 3.590E+00 
8.000E-02 1.584E-01 1.115E-01 3.240E+00 0.000E+00 0.000E+00 3.510E+00 3.352E+00 
8.200E-02 1.518E-01 1.114E-01 3.023E+00 0.000E+00 0.000E+00 3.286E+00 3.135E+00 
8.400E-02 1.456E-01 1.113E-01 2.825E+00 0.000E+00 0.000E+00 3.082E+00 2.936E+00 
8.600E-02 1.398E-01 1.112E-01 2.644E+00 0.000E+00 0.000E+00 2.895E+00 2.755E+00 
8.800E-02 1.343E-01 1.111E-01 2.478E+00 0.000E+00 0.000E+00 2.723E+00 2.589E+00 
9.000E-02 1.291E-01 1.109E-01 2.325E+00 0.000E+00 0.000E+00 2.565E+00 2.436E+00 
9.200E-02 1.242E-01 1.108E-01 2.185E+00 0.000E+00 0.000E+00 2.420E+00 2.296E+00 
9.400E-02 1.197E-01 1.106E-01 2.056E+00 0.000E+00 0.000E+00 2.286E+00 2.167E+00 
9.600E-02 1.153E-01 1.104E-01 1.937E+00 0.000E+00 0.000E+00 2.163E+00 2.047E+00 
9.800E-02 1.112E-01 1.102E-01 1.827E+00 0.000E+00 0.000E+00 2.048E+00 1.937E+00 
1.000E-01 1.073E-01 1.100E-01 1.725E+00 0.000E+00 0.000E+00 1.942E+00 1.835E+00 
1.020E-01 1.037E-01 1.098E-01 1.631E+00 0.000E+00 0.000E+00 1.844E+00 1.740E+00 
1.040E-01 1.002E-01 1.096E-01 1.543E+00 0.000E+00 0.000E+00 1.753E+00 1.653E+00 
1.060E-01 9.688E-02 1.093E-01 1.462E+00 0.000E+00 0.000E+00 1.668E+00 1.571E+00 
1.080E-01 9.374E-02 1.091E-01 1.386E+00 0.000E+00 0.000E+00 1.589E+00 1.495E+00 
1.100E-01 9.075E-02 1.089E-01 1.315E+00 0.000E+00 0.000E+00 1.515E+00 1.424E+00 
1.120E-01 8.791E-02 1.086E-01 1.249E+00 0.000E+00 0.000E+00 1.446E+00 1.358E+00 
1.140E-01 8.520E-02 1.084E-01 1.188E+00 0.000E+00 0.000E+00 1.381E+00 1.296E+00 
1.160E-01 8.262E-02 1.082E-01 1.130E+00 0.000E+00 0.000E+00 1.321E+00 1.238E+00 
1.180E-01 8.015E-02 1.079E-01 1.076E+00 0.000E+00 0.000E+00 1.265E+00 1.184E+00 
1.200E-01 7.780E-02 1.076E-01 1.026E+00 0.000E+00 0.000E+00 1.211E+00 1.134E+00 
1.220E-01 7.555E-02 1.074E-01 9.787E-01 0.000E+00 0.000E+00 1.162E+00 1.086E+00 
1.240E-01 7.339E-02 1.071E-01 9.343E-01 0.000E+00 0.000E+00 1.115E+00 1.041E+00 
1.260E-01 7.133E-02 1.069E-01 8.925E-01 0.000E+00 0.000E+00 1.071E+00 9.994E-01 
1.280E-01 6.936E-02 1.066E-01 8.532E-01 0.000E+00 0.000E+00 1.029E+00 9.598E-01 
1.300E-01 6.747E-02 1.063E-01 8.162E-01 0.000E+00 0.000E+00 9.900E-01 9.225E-01 
1.320E-01 6.566E-02 1.061E-01 7.813E-01 0.000E+00 0.000E+00 9.530E-01 8.874E-01 
1.340E-01 6.392E-02 1.058E-01 7.484E-01 0.000E+00 0.000E+00 9.181E-01 8.542E-01 
1.360E-01 6.224E-02 1.055E-01 7.174E-01 0.000E+00 0.000E+00 8.851E-01 8.229E-01 
1.380E-01 6.064E-02 1.053E-01 6.880E-01 0.000E+00 0.000E+00 8.539E-01 7.933E-01 
1.400E-01 5.909E-02 1.050E-01 6.602E-01 0.000E+00 0.000E+00 8.243E-01 7.652E-01 
1.420E-01 5.761E-02 1.047E-01 6.340E-01 0.000E+00 0.000E+00 7.963E-01 7.387E-01 
1.440E-01 5.618E-02 1.045E-01 6.091E-01 0.000E+00 0.000E+00 7.697E-01 7.136E-01 
1.460E-01 5.480E-02 1.042E-01 5.855E-01 0.000E+00 0.000E+00 7.445E-01 6.897E-01 
1.480E-01 5.348E-02 1.039E-01 5.632E-01 0.000E+00 0.000E+00 7.205E-01 6.671E-01 
1.500E-01 5.220E-02 1.036E-01 5.419E-01 0.000E+00 0.000E+00 6.978E-01 6.456E-01 
1.520E-01 5.097E-02 1.034E-01 5.218E-01 0.000E+00 0.000E+00 6.761E-01 6.251E-01 
1.540E-01 4.978E-02 1.031E-01 5.026E-01 0.000E+00 0.000E+00 6.555E-01 6.057E-01 
1.560E-01 4.863E-02 1.028E-01 4.844E-01 0.000E+00 0.000E+00 6.358E-01 5.872E-01 
1.580E-01 4.752E-02 1.026E-01 4.670E-01 0.000E+00 0.000E+00 6.171E-01 5.696E-01 
1.600E-01 4.645E-02 1.023E-01 4.505E-01 0.000E+00 0.000E+00 5.993E-01 5.528E-01 
1.620E-01 4.541E-02 1.020E-01 4.348E-01 0.000E+00 0.000E+00 5.822E-01 5.368E-01 
1.640E-01 4.441E-02 1.018E-01 4.198E-01 0.000E+00 0.000E+00 5.660E-01 5.216E-01 
1.660E-01 4.345E-02 1.015E-01 4.055E-01 0.000E+00 0.000E+00 5.504E-01 5.070E-01 
1.680E-01 4.251E-02 1.012E-01 3.918E-01 0.000E+00 0.000E+00 5.356E-01 4.931E-01 
1.700E-01 4.160E-02 1.010E-01 3.788E-01 0.000E+00 0.000E+00 5.214E-01 4.798E-01 
1.720E-01 4.072E-02 1.007E-01 3.664E-01 0.000E+00 0.000E+00 5.078E-01 4.670E-01 
1.740E-01 3.987E-02 1.004E-01 3.545E-01 0.000E+00 0.000E+00 4.948E-01 4.549E-01 
1.760E-01 3.905E-02 1.002E-01 3.431E-01 0.000E+00 0.000E+00 4.823E-01 4.432E-01 
1.780E-01 3.825E-02 9.990E-02 3.322E-01 0.000E+00 0.000E+00 4.703E-01 4.321E-01 
1.800E-01 3.748E-02 9.964E-02 3.217E-01 0.000E+00 0.000E+00 4.589E-01 4.214E-01 
1.820E-01 3.673E-02 9.938E-02 3.118E-01 0.000E+00 0.000E+00 4.479E-01 4.111E-01 
1.840E-01 3.600E-02 9.912E-02 3.022E-01 0.000E+00 0.000E+00 4.373E-01 4.013E-01 
1.860E-01 3.529E-02 9.886E-02 2.930E-01 0.000E+00 0.000E+00 4.272E-01 3.919E-01 
1.880E-01 3.460E-02 9.860E-02 2.842E-01 0.000E+00 0.000E+00 4.174E-01 3.828E-01 
1.900E-01 3.393E-02 9.835E-02 2.758E-01 0.000E+00 0.000E+00 4.081E-01 3.741E-01 
1.920E-01 3.329E-02 9.809E-02 2.677E-01 0.000E+00 0.000E+00 3.990E-01 3.658E-01 
1.940E-01 3.266E-02 9.784E-02 2.599E-01 0.000E+00 0.000E+00 3.904E-01 3.577E-01 
1.960E-01 3.204E-02 9.759E-02 2.524E-01 0.000E+00 0.000E+00 3.820E-01 3.500E-01 
1.980E-01 3.145E-02 9.734E-02 2.452E-01 0.000E+00 0.000E+00 3.740E-01 3.426E-01 
2.000E-01 3.087E-02 9.709E-02 2.383E-01 0.000E+00 0.000E+00 3.663E-01 3.354E-01 
2.020E-01 3.031E-02 9.684E-02 2.317E-01 0.000E+00 0.000E+00 3.588E-01 3.285E-01 
3.000E-01 1.440E-02 8.627E-02 7.650E-02 0.000E+00 0.000E+00 1.772E-01 1.628E-01 
4.000E-01 8.295E-03 7.811E-02 3.525E-02 0.000E+00 0.000E+00 1.217E-01 1.134E-01 
5.000E-01 5.381E-03 7.175E-02 1.988E-02 0.000E+00 0.000E+00 9.701E-02 9.163E-02 
6.000E-01 3.771E-03 6.663E-02 1.274E-02 0.000E+00 0.000E+00 8.313E-02 7.936E-02 
8.000E-01 2.143E-03 5.875E-02 6.596E-03 0.000E+00 0.000E+00 6.749E-02 6.534E-02 
1.000E+00 1.379E-03 5.291E-02 4.120E-03 0.000E+00 0.000E+00 5.841E-02 5.703E-02 
1.022E+00 1.321E-03 5.234E-02 3.922E-03 0.000E+00 0.000E+00 5.759E-02 5.626E-02 
1.250E+00 8.860E-04 4.737E-02 2.645E-03 1.883E-04 0.000E+00 5.109E-02 5.021E-02 
1.500E+00 6.164E-04 4.309E-02 1.893E-03 8.713E-04 0.000E+00 4.647E-02 4.586E-02 
2.000E+00 3.476E-04 3.681E-02 1.152E-03 2.939E-03 0.000E+00 4.124E-02 4.090E-02 
2.044E+00 3.329E-04 3.635E-02 1.111E-03 3.139E-03 0.000E+00 4.094E-02 4.061E-02 
3.000E+00 1.547E-04 2.898E-02 6.112E-04 7.408E-03 1.014E-05 3.716E-02 3.701E-02 
4.000E+00 8.713E-05 2.418E-02 4.046E-04 1.136E-02 4.134E-05 3.607E-02 3.598E-02 
5.000E+00 5.576E-05 2.088E-02 2.992E-04 1.476E-02 8.229E-05 3.608E-02 3.602E-02 
6.000E+00 3.873E-05 1.846E-02 2.361E-04 1.769E-02 1.262E-04 3.655E-02 3.651E-02 
7.000E+00 2.846E-05 1.659E-02 1.944E-04 2.030E-02 1.700E-04 3.729E-02 3.726E-02 
8.000E+00 2.179E-05 1.510E-02 1.650E-04 2.265E-02 2.123E-04 3.815E-02 3.813E-02 
9.000E+00 1.722E-05 1.389E-02 1.431E-04 2.478E-02 2.528E-04 3.907E-02 3.906E-02 
1.000E+01 1.395E-05 1.286E-02 1.262E-04 2.673E-02 2.913E-04 4.002E-02 4.001E-02 
1.100E+01 1.153E-05 1.200E-02 1.129E-04 2.852E-02 3.276E-04 4.097E-02 4.096E-02 
1.200E+01 9.685E-06 1.125E-02 1.021E-04 3.019E-02 3.619E-04 4.192E-02 4.191E-02 
1.300E+01 8.252E-06 1.060E-02 9.310E-05 3.174E-02 3.942E-04 4.283E-02 4.283E-02 
1.400E+01 7.118E-06 1.003E-02 8.556E-05 3.316E-02 4.249E-04 4.371E-02 4.370E-02 
1.500E+01 6.198E-06 9.524E-03 7.915E-05 3.448E-02 4.539E-04 4.455E-02 4.454E-02 
1.600E+01 5.448E-06 9.068E-03 7.365E-05 3.571E-02 4.817E-04 4.534E-02 4.533E-02 
1.800E+01 4.305E-06 8.285E-03 6.459E-05 3.794E-02 5.324E-04 4.683E-02 4.683E-02 
2.000E+01 3.487E-06 7.640E-03 5.751E-05 3.995E-02 5.789E-04 4.823E-02 4.823E-02 
2.200E+01 2.882E-06 7.099E-03 5.182E-05 4.177E-02 6.216E-04 4.954E-02 4.954E-02 
2.400E+01 2.422E-06 6.634E-03 4.717E-05 4.342E-02 6.606E-04 5.076E-02 5.076E-02 
2.600E+01 2.063E-06 6.231E-03 4.327E-05 4.493E-02 6.966E-04 5.190E-02 5.190E-02 
2.800E+01 1.779E-06 5.875E-03 3.996E-05 4.631E-02 7.298E-04 5.295E-02 5.295E-02 
3.000E+01 1.550E-06 5.562E-03 3.712E-05 4.760E-02 7.612E-04 5.396E-02 5.396E-02 
4.000E+01 8.717E-07 4.421E-03 2.738E-05 5.272E-02 8.893E-04 5.806E-02 5.806E-02 
5.000E+01 5.581E-07 3.691E-03 2.169E-05 5.657E-02 9.866E-04 6.127E-02 6.126E-02 
6.000E+01 3.875E-07 3.180E-03 1.795E-05 5.955E-02 1.064E-03 6.382E-02 6.382E-02 
8.000E+01 2.180E-07 2.508E-03 1.335E-05 6.392E-02 1.180E-03 6.762E-02 6.762E-02 
1.000E+02 1.395E-07 2.082E-03 1.062E-05 6.705E-02 1.264E-03 7.041E-02 7.041E-02 
1.500E+02 6.198E-08 1.482E-03 7.033E-06 7.204E-02 1.404E-03 7.493E-02 7.493E-02 
2.000E+02 3.487E-08 1.162E-03 5.258E-06 7.502E-02 1.491E-03 7.768E-02 7.768E-02 
3.000E+02 1.550E-08 8.238E-04 3.493E-06 7.849E-02 1.599E-03 8.092E-02 8.092E-02 
4.000E+02 8.717E-09 6.454E-04 2.615E-06 8.048E-02 1.663E-03 8.279E-02 8.279E-02 
5.000E+02 5.581E-09 5.339E-04 2.090E-06 8.176E-02 1.707E-03 8.401E-02 8.401E-02 
6.000E+02 3.874E-09 4.573E-04 1.740E-06 8.271E-02 1.739E-03 8.491E-02 8.491E-02 
8.000E+02 2.179E-09 3.571E-04 1.304E-06 8.395E-02 1.784E-03 8.609E-02 8.609E-02 
1.000E+03 1.395E-09 2.938E-04 1.043E-06 8.475E-02 1.813E-03 8.686E-02 8.686E-02 
1.500E+03 6.198E-10 2.052E-04 6.947E-07 8.594E-02 1.857E-03 8.800E-02 8.800E-02 
2.000E+03 3.487E-10 1.588E-04 5.206E-07 8.660E-02 1.882E-03 8.864E-02 8.864E-02 
3.000E+03 1.550E-10 1.104E-04 3.471E-07 8.727E-02 1.909E-03 8.929E-02 8.929E-02 
4.000E+03 8.717E-11 8.523E-05 2.603E-07 8.765E-02 1.924E-03 8.966E-02 8.966E-02 
5.000E+03 5.581E-11 6.971E-05 2.082E-07 8.788E-02 1.934E-03 8.989E-02 8.989E-02 
6.000E+03 3.874E-11 5.908E-05 1.735E-07 8.803E-02 1.941E-03 9.003E-02 9.003E-02 
8.000E+03 2.179E-11 4.553E-05 1.301E-07 8.826E-02 1.950E-03 9.026E-02 9.026E-02 
1.000E+04 1.395E-11 3.718E-05 1.041E-07 8.841E-02 1.956E-03 9.040E-02 9.040E-02 
1.500E+04 6.198E-12 2.569E-05 6.938E-08 8.860E-02 1.963E-03 9.059E-02 9.059E-02 
2.000E+04 3.487E-12 1.975E-05 5.201E-08 8.869E-02 1.968E-03 9.068E-02 9.068E-02 
3.000E+04 1.550E-12 1.362E-05 3.468E-08 8.879E-02 1.972E-03 9.077E-02 9.077E-02 
4.000E+04 8.717E-13 1.046E-05 2.601E-08 8.883E-02 1.975E-03 9.082E-02 9.082E-02 
5.000E+04 5.581E-13 8.518E-06 2.081E-08 8.888E-02 1.976E-03 9.087E-02 9.087E-02 
6.000E+04 3.874E-13 7.199E-06 1.734E-08 8.888E-02 1.977E-03 9.087E-02 9.087E-02 
8.000E+04 2.179E-13 5.519E-06 1.301E-08 8.893E-02 1.979E-03 9.091E-02 9.091E-02 
1.000E+05 1.395E-13 4.491E-06 1.041E-08 8.893E-02 1.980E-03 9.091E-02 9.091E-02  
