Photon    Coherent Incoher. Photoel. Nuclear  Electron Tot. w/  Tot. wo/ 
Energy    Scatter. Scatter. Absorb.  Pr. Prd. Pr. Prd. Coherent Coherent 

1.000E-03 1.350E+00 1.327E-02 3.823E+03 0.000E+00 0.000E+00 3.825E+03 3.823E+03 
1.020E-03 1.345E+00 1.374E-02 3.630E+03 0.000E+00 0.000E+00 3.631E+03 3.630E+03 
1.020E-03 1.345E+00 1.374E-02 3.630E+03 0.000E+00 0.000E+00 3.631E+03 3.630E+03 
1.031E-03 1.343E+00 1.401E-02 3.523E+03 0.000E+00 0.000E+00 3.524E+03 3.523E+03 
1.043E-03 1.340E+00 1.429E-02 3.419E+03 0.000E+00 0.000E+00 3.421E+03 3.419E+03 
1.043E-03 1.340E+00 1.429E-02 3.419E+03 0.000E+00 0.000E+00 3.421E+03 3.420E+03 
1.057E-03 1.337E+00 1.465E-02 3.296E+03 0.000E+00 0.000E+00 3.297E+03 3.296E+03 
1.072E-03 1.334E+00 1.501E-02 3.176E+03 0.000E+00 0.000E+00 3.177E+03 3.176E+03 
1.072E-03 1.334E+00 1.501E-02 3.187E+03 0.000E+00 0.000E+00 3.188E+03 3.187E+03 
1.131E-03 1.322E+00 1.651E-02 2.762E+03 0.000E+00 0.000E+00 2.763E+03 2.762E+03 
1.194E-03 1.309E+00 1.814E-02 2.393E+03 0.000E+00 0.000E+00 2.394E+03 2.393E+03 
1.194E-03 1.309E+00 1.814E-02 2.393E+03 0.000E+00 0.000E+00 2.394E+03 2.393E+03 
1.248E-03 1.298E+00 1.961E-02 2.123E+03 0.000E+00 0.000E+00 2.125E+03 2.123E+03 
1.305E-03 1.286E+00 2.118E-02 1.883E+03 0.000E+00 0.000E+00 1.884E+03 1.883E+03 
1.305E-03 1.286E+00 2.118E-02 1.887E+03 0.000E+00 0.000E+00 1.888E+03 1.887E+03 
1.500E-03 1.244E+00 2.678E-02 1.292E+03 0.000E+00 0.000E+00 1.293E+03 1.292E+03 
2.000E-03 1.122E+00 4.179E-02 5.782E+02 0.000E+00 0.000E+00 5.794E+02 5.783E+02 
2.145E-03 1.085E+00 4.617E-02 4.735E+02 0.000E+00 0.000E+00 4.746E+02 4.736E+02 
2.145E-03 1.085E+00 4.617E-02 4.753E+02 0.000E+00 0.000E+00 4.764E+02 4.753E+02 
2.303E-03 1.046E+00 5.085E-02 3.882E+02 0.000E+00 0.000E+00 3.893E+02 3.882E+02 
2.472E-03 1.005E+00 5.580E-02 3.167E+02 0.000E+00 0.000E+00 3.178E+02 3.168E+02 
2.472E-03 1.005E+00 5.580E-02 3.209E+02 0.000E+00 0.000E+00 3.219E+02 3.209E+02 
2.641E-03 9.643E-01 6.063E-02 2.651E+02 0.000E+00 0.000E+00 2.662E+02 2.652E+02 
2.822E-03 9.221E-01 6.564E-02 2.188E+02 0.000E+00 0.000E+00 2.198E+02 2.189E+02 
2.822E-03 9.221E-01 6.564E-02 2.227E+02 0.000E+00 0.000E+00 2.237E+02 2.228E+02 
3.000E-03 8.821E-01 7.038E-02 1.868E+02 0.000E+00 0.000E+00 1.877E+02 1.868E+02 
3.607E-03 7.568E-01 8.517E-02 1.088E+02 0.000E+00 0.000E+00 1.096E+02 1.089E+02 
3.607E-03 7.568E-01 8.517E-02 1.109E+02 0.000E+00 0.000E+00 1.117E+02 1.110E+02 
4.000E-03 6.863E-01 9.357E-02 8.167E+01 0.000E+00 0.000E+00 8.245E+01 8.177E+01 
4.038E-03 6.798E-01 9.434E-02 7.941E+01 0.000E+00 0.000E+00 8.018E+01 7.950E+01 
4.038E-03 6.798E-01 9.434E-02 7.949E+01 0.000E+00 0.000E+00 8.026E+01 7.958E+01 
5.000E-03 5.410E-01 1.112E-01 4.202E+01 0.000E+00 0.000E+00 4.267E+01 4.213E+01 
6.000E-03 4.363E-01 1.244E-01 2.422E+01 0.000E+00 0.000E+00 2.478E+01 2.434E+01 
7.112E-03 3.528E-01 1.354E-01 1.442E+01 0.000E+00 0.000E+00 1.491E+01 1.455E+01 
7.112E-03 3.528E-01 1.354E-01 1.455E+01 0.000E+00 0.000E+00 1.504E+01 1.469E+01 
8.000E-03 3.033E-01 1.421E-01 1.014E+01 0.000E+00 0.000E+00 1.059E+01 1.029E+01 
9.659E-03 2.371E-01 1.515E-01 5.667E+00 0.000E+00 0.000E+00 6.055E+00 5.818E+00 
9.659E-03 2.371E-01 1.515E-01 5.669E+00 0.000E+00 0.000E+00 6.057E+00 5.820E+00 
1.000E-02 2.265E-01 1.530E-01 5.089E+00 0.000E+00 0.000E+00 5.468E+00 5.242E+00 
1.200E-02 1.780E-01 1.604E-01 2.879E+00 0.000E+00 0.000E+00 3.217E+00 3.039E+00 
1.400E-02 1.447E-01 1.658E-01 1.772E+00 0.000E+00 0.000E+00 2.083E+00 1.938E+00 
1.500E-02 1.316E-01 1.680E-01 1.425E+00 0.000E+00 0.000E+00 1.725E+00 1.593E+00 
1.600E-02 1.204E-01 1.699E-01 1.161E+00 0.000E+00 0.000E+00 1.452E+00 1.331E+00 
1.800E-02 1.019E-01 1.731E-01 7.986E-01 0.000E+00 0.000E+00 1.074E+00 9.717E-01 
2.000E-02 8.743E-02 1.756E-01 5.705E-01 0.000E+00 0.000E+00 8.335E-01 7.460E-01 
2.200E-02 7.578E-02 1.775E-01 4.203E-01 0.000E+00 0.000E+00 6.735E-01 5.978E-01 
2.400E-02 6.626E-02 1.789E-01 3.177E-01 0.000E+00 0.000E+00 5.629E-01 4.966E-01 
2.600E-02 5.839E-02 1.799E-01 2.455E-01 0.000E+00 0.000E+00 4.838E-01 4.254E-01 
2.800E-02 5.182E-02 1.807E-01 1.932E-01 0.000E+00 0.000E+00 4.257E-01 3.739E-01 
3.000E-02 4.628E-02 1.811E-01 1.545E-01 0.000E+00 0.000E+00 3.820E-01 3.357E-01 
3.200E-02 4.156E-02 1.814E-01 1.254E-01 0.000E+00 0.000E+00 3.483E-01 3.068E-01 
3.400E-02 3.751E-02 1.815E-01 1.030E-01 0.000E+00 0.000E+00 3.220E-01 2.845E-01 
3.600E-02 3.402E-02 1.814E-01 8.551E-02 0.000E+00 0.000E+00 3.010E-01 2.669E-01 
3.800E-02 3.099E-02 1.813E-01 7.171E-02 0.000E+00 0.000E+00 2.840E-01 2.530E-01 
4.000E-02 2.835E-02 1.810E-01 6.067E-02 0.000E+00 0.000E+00 2.700E-01 2.417E-01 
4.200E-02 2.603E-02 1.806E-01 5.175E-02 0.000E+00 0.000E+00 2.584E-01 2.324E-01 
4.400E-02 2.398E-02 1.802E-01 4.446E-02 0.000E+00 0.000E+00 2.486E-01 2.247E-01 
4.600E-02 2.216E-02 1.797E-01 3.845E-02 0.000E+00 0.000E+00 2.403E-01 2.182E-01 
4.800E-02 2.055E-02 1.792E-01 3.345E-02 0.000E+00 0.000E+00 2.332E-01 2.126E-01 
5.000E-02 1.910E-02 1.786E-01 2.927E-02 0.000E+00 0.000E+00 2.270E-01 2.079E-01 
5.200E-02 1.780E-02 1.780E-01 2.574E-02 0.000E+00 0.000E+00 2.215E-01 2.037E-01 
5.400E-02 1.663E-02 1.773E-01 2.275E-02 0.000E+00 0.000E+00 2.167E-01 2.001E-01 
5.600E-02 1.557E-02 1.767E-01 2.019E-02 0.000E+00 0.000E+00 2.124E-01 1.969E-01 
5.800E-02 1.461E-02 1.760E-01 1.800E-02 0.000E+00 0.000E+00 2.086E-01 1.940E-01 
6.000E-02 1.373E-02 1.753E-01 1.611E-02 0.000E+00 0.000E+00 2.052E-01 1.914E-01 
6.200E-02 1.293E-02 1.746E-01 1.446E-02 0.000E+00 0.000E+00 2.020E-01 1.891E-01 
6.400E-02 1.220E-02 1.739E-01 1.303E-02 0.000E+00 0.000E+00 1.991E-01 1.869E-01 
6.600E-02 1.153E-02 1.732E-01 1.178E-02 0.000E+00 0.000E+00 1.965E-01 1.850E-01 
6.800E-02 1.091E-02 1.724E-01 1.068E-02 0.000E+00 0.000E+00 1.940E-01 1.831E-01 
7.000E-02 1.034E-02 1.717E-01 9.713E-03 0.000E+00 0.000E+00 1.918E-01 1.814E-01 
7.200E-02 9.812E-03 1.710E-01 8.855E-03 0.000E+00 0.000E+00 1.897E-01 1.798E-01 
7.400E-02 9.324E-03 1.703E-01 8.094E-03 0.000E+00 0.000E+00 1.877E-01 1.784E-01 
7.600E-02 8.871E-03 1.695E-01 7.416E-03 0.000E+00 0.000E+00 1.858E-01 1.769E-01 
7.800E-02 8.450E-03 1.688E-01 6.810E-03 0.000E+00 0.000E+00 1.841E-01 1.756E-01 
8.000E-02 8.058E-03 1.681E-01 6.267E-03 0.000E+00 0.000E+00 1.824E-01 1.743E-01 
8.200E-02 7.692E-03 1.673E-01 5.779E-03 0.000E+00 0.000E+00 1.808E-01 1.731E-01 
8.400E-02 7.350E-03 1.666E-01 5.340E-03 0.000E+00 0.000E+00 1.793E-01 1.720E-01 
8.600E-02 7.031E-03 1.659E-01 4.943E-03 0.000E+00 0.000E+00 1.779E-01 1.709E-01 
8.800E-02 6.732E-03 1.652E-01 4.584E-03 0.000E+00 0.000E+00 1.765E-01 1.698E-01 
9.000E-02 6.451E-03 1.645E-01 4.258E-03 0.000E+00 0.000E+00 1.752E-01 1.687E-01 
9.200E-02 6.188E-03 1.638E-01 3.962E-03 0.000E+00 0.000E+00 1.739E-01 1.677E-01 
9.400E-02 5.940E-03 1.631E-01 3.693E-03 0.000E+00 0.000E+00 1.727E-01 1.668E-01 
9.600E-02 5.707E-03 1.624E-01 3.446E-03 0.000E+00 0.000E+00 1.715E-01 1.658E-01 
9.800E-02 5.487E-03 1.617E-01 3.221E-03 0.000E+00 0.000E+00 1.704E-01 1.649E-01 
1.000E-01 5.279E-03 1.610E-01 3.015E-03 0.000E+00 0.000E+00 1.693E-01 1.640E-01 
1.020E-01 5.083E-03 1.604E-01 2.826E-03 0.000E+00 0.000E+00 1.683E-01 1.632E-01 
1.040E-01 4.897E-03 1.597E-01 2.652E-03 0.000E+00 0.000E+00 1.672E-01 1.623E-01 
1.060E-01 4.722E-03 1.590E-01 2.491E-03 0.000E+00 0.000E+00 1.662E-01 1.615E-01 
1.080E-01 4.555E-03 1.584E-01 2.343E-03 0.000E+00 0.000E+00 1.653E-01 1.607E-01 
1.100E-01 4.398E-03 1.577E-01 2.207E-03 0.000E+00 0.000E+00 1.643E-01 1.599E-01 
1.120E-01 4.248E-03 1.571E-01 2.081E-03 0.000E+00 0.000E+00 1.634E-01 1.591E-01 
1.140E-01 4.106E-03 1.564E-01 1.964E-03 0.000E+00 0.000E+00 1.625E-01 1.584E-01 
1.160E-01 3.970E-03 1.558E-01 1.855E-03 0.000E+00 0.000E+00 1.616E-01 1.576E-01 
1.180E-01 3.841E-03 1.552E-01 1.755E-03 0.000E+00 0.000E+00 1.608E-01 1.569E-01 
1.200E-01 3.719E-03 1.545E-01 1.661E-03 0.000E+00 0.000E+00 1.599E-01 1.562E-01 
1.220E-01 3.602E-03 1.539E-01 1.574E-03 0.000E+00 0.000E+00 1.591E-01 1.555E-01 
1.240E-01 3.490E-03 1.533E-01 1.492E-03 0.000E+00 0.000E+00 1.583E-01 1.548E-01 
1.260E-01 3.384E-03 1.527E-01 1.417E-03 0.000E+00 0.000E+00 1.575E-01 1.541E-01 
1.280E-01 3.282E-03 1.521E-01 1.346E-03 0.000E+00 0.000E+00 1.567E-01 1.535E-01 
1.300E-01 3.185E-03 1.515E-01 1.279E-03 0.000E+00 0.000E+00 1.560E-01 1.528E-01 
1.320E-01 3.092E-03 1.509E-01 1.217E-03 0.000E+00 0.000E+00 1.552E-01 1.522E-01 
1.340E-01 3.003E-03 1.504E-01 1.159E-03 0.000E+00 0.000E+00 1.545E-01 1.515E-01 
1.360E-01 2.917E-03 1.498E-01 1.105E-03 0.000E+00 0.000E+00 1.538E-01 1.509E-01 
1.380E-01 2.836E-03 1.492E-01 1.054E-03 0.000E+00 0.000E+00 1.531E-01 1.503E-01 
1.400E-01 2.757E-03 1.486E-01 1.006E-03 0.000E+00 0.000E+00 1.524E-01 1.497E-01 
1.420E-01 2.682E-03 1.481E-01 9.603E-04 0.000E+00 0.000E+00 1.517E-01 1.490E-01 
1.440E-01 2.610E-03 1.475E-01 9.177E-04 0.000E+00 0.000E+00 1.511E-01 1.485E-01 
1.460E-01 2.541E-03 1.470E-01 8.775E-04 0.000E+00 0.000E+00 1.504E-01 1.479E-01 
1.480E-01 2.474E-03 1.464E-01 8.397E-04 0.000E+00 0.000E+00 1.498E-01 1.473E-01 
1.500E-01 2.410E-03 1.459E-01 8.040E-04 0.000E+00 0.000E+00 1.491E-01 1.467E-01 
1.520E-01 2.349E-03 1.454E-01 7.702E-04 0.000E+00 0.000E+00 1.485E-01 1.461E-01 
1.540E-01 2.289E-03 1.448E-01 7.383E-04 0.000E+00 0.000E+00 1.479E-01 1.456E-01 
1.560E-01 2.232E-03 1.443E-01 7.082E-04 0.000E+00 0.000E+00 1.473E-01 1.450E-01 
1.580E-01 2.177E-03 1.438E-01 6.796E-04 0.000E+00 0.000E+00 1.467E-01 1.445E-01 
1.600E-01 2.124E-03 1.433E-01 6.526E-04 0.000E+00 0.000E+00 1.461E-01 1.440E-01 
1.620E-01 2.073E-03 1.428E-01 6.269E-04 0.000E+00 0.000E+00 1.455E-01 1.434E-01 
1.640E-01 2.024E-03 1.423E-01 6.026E-04 0.000E+00 0.000E+00 1.449E-01 1.429E-01 
1.660E-01 1.976E-03 1.418E-01 5.795E-04 0.000E+00 0.000E+00 1.443E-01 1.424E-01 
1.680E-01 1.931E-03 1.413E-01 5.576E-04 0.000E+00 0.000E+00 1.438E-01 1.419E-01 
1.700E-01 1.886E-03 1.408E-01 5.368E-04 0.000E+00 0.000E+00 1.432E-01 1.413E-01 
1.720E-01 1.843E-03 1.403E-01 5.170E-04 0.000E+00 0.000E+00 1.427E-01 1.408E-01 
1.740E-01 1.802E-03 1.398E-01 4.981E-04 0.000E+00 0.000E+00 1.421E-01 1.403E-01 
1.760E-01 1.762E-03 1.394E-01 4.802E-04 0.000E+00 0.000E+00 1.416E-01 1.399E-01 
1.780E-01 1.723E-03 1.389E-01 4.631E-04 0.000E+00 0.000E+00 1.411E-01 1.394E-01 
1.800E-01 1.686E-03 1.384E-01 4.468E-04 0.000E+00 0.000E+00 1.406E-01 1.389E-01 
1.820E-01 1.650E-03 1.380E-01 4.313E-04 0.000E+00 0.000E+00 1.401E-01 1.384E-01 
1.840E-01 1.614E-03 1.375E-01 4.164E-04 0.000E+00 0.000E+00 1.396E-01 1.379E-01 
1.860E-01 1.580E-03 1.371E-01 4.023E-04 0.000E+00 0.000E+00 1.391E-01 1.375E-01 
1.880E-01 1.548E-03 1.366E-01 3.888E-04 0.000E+00 0.000E+00 1.386E-01 1.370E-01 
1.900E-01 1.516E-03 1.362E-01 3.759E-04 0.000E+00 0.000E+00 1.381E-01 1.366E-01 
1.920E-01 1.485E-03 1.357E-01 3.635E-04 0.000E+00 0.000E+00 1.376E-01 1.361E-01 
1.940E-01 1.455E-03 1.353E-01 3.517E-04 0.000E+00 0.000E+00 1.371E-01 1.357E-01 
1.960E-01 1.426E-03 1.349E-01 3.404E-04 0.000E+00 0.000E+00 1.366E-01 1.352E-01 
1.980E-01 1.397E-03 1.344E-01 3.296E-04 0.000E+00 0.000E+00 1.362E-01 1.348E-01 
2.000E-01 1.370E-03 1.340E-01 3.193E-04 0.000E+00 0.000E+00 1.357E-01 1.343E-01 
2.020E-01 1.343E-03 1.336E-01 3.093E-04 0.000E+00 0.000E+00 1.353E-01 1.339E-01 
3.000E-01 6.137E-04 1.168E-01 9.073E-05 0.000E+00 0.000E+00 1.175E-01 1.169E-01 
4.000E-01 3.462E-04 1.047E-01 3.897E-05 0.000E+00 0.000E+00 1.051E-01 1.048E-01 
5.000E-01 2.219E-04 9.568E-02 2.105E-05 0.000E+00 0.000E+00 9.592E-02 9.570E-02 
6.000E-01 1.542E-04 8.852E-02 1.312E-05 0.000E+00 0.000E+00 8.869E-02 8.853E-02 
8.000E-01 8.681E-05 7.779E-02 6.631E-06 0.000E+00 0.000E+00 7.789E-02 7.780E-02 
1.000E+00 5.558E-05 6.997E-02 4.122E-06 0.000E+00 0.000E+00 7.002E-02 6.997E-02 
1.022E+00 5.322E-05 6.923E-02 3.851E-06 0.000E+00 0.000E+00 6.928E-02 6.923E-02 
1.250E+00 3.559E-05 6.256E-02 2.613E-06 1.756E-05 0.000E+00 6.262E-02 6.258E-02 
1.500E+00 2.471E-05 5.686E-02 1.895E-06 9.703E-05 0.000E+00 5.698E-02 5.695E-02 
2.000E+00 1.390E-05 4.853E-02 1.189E-06 3.861E-04 0.000E+00 4.893E-02 4.892E-02 
2.044E+00 1.331E-05 4.792E-02 1.150E-06 4.161E-04 0.000E+00 4.835E-02 4.833E-02 
3.000E+00 6.179E-06 3.817E-02 6.621E-07 1.104E-03 1.336E-05 3.930E-02 3.929E-02 
4.000E+00 3.476E-06 3.184E-02 4.535E-07 1.790E-03 5.453E-05 3.369E-02 3.369E-02 
5.000E+00 2.224E-06 2.750E-02 3.434E-07 2.401E-03 1.087E-04 3.001E-02 3.001E-02 
6.000E+00 1.545E-06 2.430E-02 2.757E-07 2.950E-03 1.669E-04 2.742E-02 2.742E-02 
7.000E+00 1.135E-06 2.185E-02 2.302E-07 3.439E-03 2.250E-04 2.551E-02 2.551E-02 
8.000E+00 8.689E-07 1.988E-02 1.974E-07 3.879E-03 2.815E-04 2.404E-02 2.404E-02 
9.000E+00 6.866E-07 1.828E-02 1.727E-07 4.280E-03 3.356E-04 2.289E-02 2.289E-02 
1.000E+01 5.561E-07 1.693E-02 1.535E-07 4.642E-03 3.872E-04 2.196E-02 2.196E-02 
1.100E+01 4.595E-07 1.579E-02 1.382E-07 4.972E-03 4.361E-04 2.120E-02 2.120E-02 
1.200E+01 3.861E-07 1.481E-02 1.255E-07 5.276E-03 4.825E-04 2.057E-02 2.057E-02 
1.300E+01 3.291E-07 1.395E-02 1.150E-07 5.558E-03 5.263E-04 2.004E-02 2.004E-02 
1.400E+01 2.837E-07 1.320E-02 1.061E-07 5.821E-03 5.681E-04 1.959E-02 1.959E-02 
1.500E+01 2.471E-07 1.253E-02 9.853E-08 6.066E-03 6.075E-04 1.921E-02 1.921E-02 
1.600E+01 2.172E-07 1.194E-02 9.193E-08 6.298E-03 6.455E-04 1.888E-02 1.888E-02 
1.800E+01 1.716E-07 1.091E-02 8.107E-08 6.720E-03 7.159E-04 1.834E-02 1.834E-02 
2.000E+01 1.390E-07 1.006E-02 7.248E-08 7.099E-03 7.801E-04 1.794E-02 1.794E-02 
2.200E+01 1.149E-07 9.343E-03 6.555E-08 7.444E-03 8.397E-04 1.763E-02 1.763E-02 
2.400E+01 9.655E-08 8.731E-03 5.982E-08 7.757E-03 8.945E-04 1.738E-02 1.738E-02 
2.600E+01 8.227E-08 8.197E-03 5.501E-08 8.044E-03 9.455E-04 1.719E-02 1.719E-02 
2.800E+01 7.092E-08 7.733E-03 5.091E-08 8.310E-03 9.932E-04 1.704E-02 1.704E-02 
3.000E+01 6.179E-08 7.323E-03 4.739E-08 8.555E-03 1.038E-03 1.692E-02 1.692E-02 
4.000E+01 3.476E-08 5.818E-03 3.519E-08 9.557E-03 1.225E-03 1.660E-02 1.660E-02 
5.000E+01 2.224E-08 4.858E-03 2.799E-08 1.032E-02 1.372E-03 1.655E-02 1.655E-02 
6.000E+01 1.545E-08 4.183E-03 2.323E-08 1.092E-02 1.491E-03 1.660E-02 1.660E-02 
8.000E+01 8.689E-09 3.301E-03 1.734E-08 1.184E-02 1.676E-03 1.682E-02 1.682E-02 
1.000E+02 5.561E-09 2.739E-03 1.383E-08 1.251E-02 1.816E-03 1.707E-02 1.707E-02 
1.500E+02 2.471E-09 1.951E-03 9.180E-09 1.363E-02 2.060E-03 1.764E-02 1.764E-02 
2.000E+02 1.390E-09 1.530E-03 6.873E-09 1.432E-02 2.221E-03 1.807E-02 1.807E-02 
3.000E+02 6.178E-10 1.084E-03 4.571E-09 1.515E-02 2.428E-03 1.866E-02 1.866E-02 
4.000E+02 3.476E-10 8.490E-04 3.426E-09 1.563E-02 2.558E-03 1.904E-02 1.904E-02 
5.000E+02 2.224E-10 7.029E-04 2.739E-09 1.596E-02 2.648E-03 1.931E-02 1.931E-02 
6.000E+02 1.544E-10 6.020E-04 2.281E-09 1.619E-02 2.715E-03 1.951E-02 1.951E-02 
8.000E+02 8.689E-11 4.700E-04 1.710E-09 1.650E-02 2.810E-03 1.978E-02 1.978E-02 
1.000E+03 5.561E-11 3.867E-04 1.368E-09 1.671E-02 2.873E-03 1.997E-02 1.997E-02 
1.500E+03 2.471E-11 2.701E-04 9.115E-10 1.701E-02 2.969E-03 2.025E-02 2.025E-02 
2.000E+03 1.390E-11 2.090E-04 6.835E-10 1.717E-02 3.024E-03 2.041E-02 2.041E-02 
3.000E+03 6.178E-12 1.453E-04 4.555E-10 1.735E-02 3.084E-03 2.058E-02 2.058E-02 
4.000E+03 3.476E-12 1.122E-04 3.416E-10 1.745E-02 3.119E-03 2.068E-02 2.068E-02 
5.000E+03 2.224E-12 9.173E-05 2.733E-10 1.751E-02 3.141E-03 2.074E-02 2.074E-02 
6.000E+03 1.544E-12 7.779E-05 2.277E-10 1.755E-02 3.157E-03 2.079E-02 2.079E-02 
8.000E+03 8.689E-13 5.991E-05 1.708E-10 1.761E-02 3.177E-03 2.084E-02 2.084E-02 
1.000E+04 5.561E-13 4.891E-05 1.366E-10 1.764E-02 3.190E-03 2.088E-02 2.088E-02 
1.500E+04 2.471E-13 3.381E-05 9.107E-11 1.769E-02 3.208E-03 2.093E-02 2.093E-02 
2.000E+04 1.390E-13 2.599E-05 6.831E-11 1.772E-02 3.218E-03 2.096E-02 2.096E-02 
3.000E+04 6.178E-14 1.793E-05 4.555E-11 1.775E-02 3.228E-03 2.099E-02 2.099E-02 
4.000E+04 3.476E-14 1.376E-05 3.416E-11 1.776E-02 3.235E-03 2.101E-02 2.101E-02 
5.000E+04 2.224E-14 1.121E-05 2.732E-11 1.777E-02 3.238E-03 2.102E-02 2.102E-02 
6.000E+04 1.544E-14 9.474E-06 2.277E-11 1.777E-02 3.241E-03 2.102E-02 2.102E-02 
8.000E+04 8.689E-15 7.265E-06 1.708E-11 1.778E-02 3.244E-03 2.103E-02 2.103E-02 
1.000E+05 5.561E-15 5.909E-06 1.366E-11 1.779E-02 3.246E-03 2.104E-02 2.104E-02  
