Photon    Coherent Incoher. Photoel. Nuclear  Electron Tot. w/  Tot. wo/ 
Energy    Scatter. Scatter. Absorb.  Pr. Prd. Pr. Prd. Coherent Coherent 

1.000E-03 1.347E+00 1.326E-02 3.819E+03 0.000E+00 0.000E+00 3.820E+03 3.819E+03 
1.020E-03 1.343E+00 1.373E-02 3.625E+03 0.000E+00 0.000E+00 3.627E+03 3.625E+03 
1.020E-03 1.343E+00 1.373E-02 3.625E+03 0.000E+00 0.000E+00 3.627E+03 3.625E+03 
1.031E-03 1.340E+00 1.400E-02 3.519E+03 0.000E+00 0.000E+00 3.520E+03 3.519E+03 
1.043E-03 1.338E+00 1.428E-02 3.415E+03 0.000E+00 0.000E+00 3.417E+03 3.415E+03 
1.043E-03 1.338E+00 1.428E-02 3.416E+03 0.000E+00 0.000E+00 3.417E+03 3.416E+03 
1.057E-03 1.335E+00 1.464E-02 3.292E+03 0.000E+00 0.000E+00 3.293E+03 3.292E+03 
1.072E-03 1.331E+00 1.500E-02 3.172E+03 0.000E+00 0.000E+00 3.174E+03 3.172E+03 
1.072E-03 1.331E+00 1.500E-02 3.177E+03 0.000E+00 0.000E+00 3.178E+03 3.177E+03 
1.131E-03 1.319E+00 1.650E-02 2.753E+03 0.000E+00 0.000E+00 2.754E+03 2.753E+03 
1.194E-03 1.307E+00 1.813E-02 2.385E+03 0.000E+00 0.000E+00 2.386E+03 2.385E+03 
1.194E-03 1.307E+00 1.813E-02 2.385E+03 0.000E+00 0.000E+00 2.386E+03 2.385E+03 
1.248E-03 1.295E+00 1.960E-02 2.116E+03 0.000E+00 0.000E+00 2.117E+03 2.116E+03 
1.305E-03 1.284E+00 2.117E-02 1.876E+03 0.000E+00 0.000E+00 1.878E+03 1.876E+03 
1.305E-03 1.284E+00 2.117E-02 1.877E+03 0.000E+00 0.000E+00 1.879E+03 1.877E+03 
1.500E-03 1.241E+00 2.677E-02 1.285E+03 0.000E+00 0.000E+00 1.287E+03 1.285E+03 
2.000E-03 1.119E+00 4.177E-02 5.749E+02 0.000E+00 0.000E+00 5.760E+02 5.749E+02 
2.145E-03 1.083E+00 4.615E-02 4.707E+02 0.000E+00 0.000E+00 4.719E+02 4.708E+02 
2.145E-03 1.083E+00 4.615E-02 4.747E+02 0.000E+00 0.000E+00 4.759E+02 4.748E+02 
2.303E-03 1.044E+00 5.083E-02 3.878E+02 0.000E+00 0.000E+00 3.889E+02 3.878E+02 
2.472E-03 1.002E+00 5.577E-02 3.164E+02 0.000E+00 0.000E+00 3.175E+02 3.165E+02 
2.472E-03 1.002E+00 5.577E-02 3.209E+02 0.000E+00 0.000E+00 3.219E+02 3.209E+02 
2.641E-03 9.617E-01 6.061E-02 2.652E+02 0.000E+00 0.000E+00 2.662E+02 2.652E+02 
2.822E-03 9.196E-01 6.561E-02 2.189E+02 0.000E+00 0.000E+00 2.199E+02 2.190E+02 
2.822E-03 9.196E-01 6.561E-02 2.201E+02 0.000E+00 0.000E+00 2.210E+02 2.201E+02 
3.000E-03 8.796E-01 7.035E-02 1.844E+02 0.000E+00 0.000E+00 1.853E+02 1.844E+02 
3.607E-03 7.545E-01 8.514E-02 1.073E+02 0.000E+00 0.000E+00 1.081E+02 1.074E+02 
3.607E-03 7.545E-01 8.514E-02 1.105E+02 0.000E+00 0.000E+00 1.113E+02 1.106E+02 
4.000E-03 6.841E-01 9.354E-02 8.144E+01 0.000E+00 0.000E+00 8.221E+01 8.153E+01 
4.038E-03 6.777E-01 9.430E-02 7.918E+01 0.000E+00 0.000E+00 7.995E+01 7.927E+01 
4.038E-03 6.777E-01 9.430E-02 7.921E+01 0.000E+00 0.000E+00 7.998E+01 7.930E+01 
5.000E-03 5.392E-01 1.112E-01 4.187E+01 0.000E+00 0.000E+00 4.252E+01 4.198E+01 
6.000E-03 4.348E-01 1.244E-01 2.413E+01 0.000E+00 0.000E+00 2.469E+01 2.426E+01 
7.112E-03 3.516E-01 1.353E-01 1.437E+01 0.000E+00 0.000E+00 1.486E+01 1.450E+01 
7.112E-03 3.516E-01 1.353E-01 1.438E+01 0.000E+00 0.000E+00 1.487E+01 1.452E+01 
8.000E-03 3.022E-01 1.420E-01 1.002E+01 0.000E+00 0.000E+00 1.047E+01 1.016E+01 
9.659E-03 2.363E-01 1.514E-01 5.594E+00 0.000E+00 0.000E+00 5.982E+00 5.745E+00 
9.659E-03 2.363E-01 1.514E-01 5.605E+00 0.000E+00 0.000E+00 5.993E+00 5.756E+00 
1.000E-02 2.258E-01 1.529E-01 5.031E+00 0.000E+00 0.000E+00 5.410E+00 5.184E+00 
1.200E-02 1.774E-01 1.604E-01 2.845E+00 0.000E+00 0.000E+00 3.182E+00 3.005E+00 
1.400E-02 1.442E-01 1.657E-01 1.750E+00 0.000E+00 0.000E+00 2.060E+00 1.916E+00 
1.500E-02 1.312E-01 1.679E-01 1.407E+00 0.000E+00 0.000E+00 1.706E+00 1.575E+00 
1.600E-02 1.200E-01 1.698E-01 1.146E+00 0.000E+00 0.000E+00 1.436E+00 1.316E+00 
1.800E-02 1.016E-01 1.730E-01 7.880E-01 0.000E+00 0.000E+00 1.063E+00 9.610E-01 
2.000E-02 8.715E-02 1.755E-01 5.627E-01 0.000E+00 0.000E+00 8.253E-01 7.382E-01 
2.200E-02 7.553E-02 1.774E-01 4.144E-01 0.000E+00 0.000E+00 6.674E-01 5.918E-01 
2.400E-02 6.605E-02 1.788E-01 3.132E-01 0.000E+00 0.000E+00 5.581E-01 4.920E-01 
2.600E-02 5.820E-02 1.798E-01 2.419E-01 0.000E+00 0.000E+00 4.800E-01 4.218E-01 
2.800E-02 5.165E-02 1.806E-01 1.904E-01 0.000E+00 0.000E+00 4.226E-01 3.709E-01 
3.000E-02 4.612E-02 1.811E-01 1.522E-01 0.000E+00 0.000E+00 3.794E-01 3.333E-01 
3.200E-02 4.142E-02 1.813E-01 1.235E-01 0.000E+00 0.000E+00 3.462E-01 3.048E-01 
3.400E-02 3.738E-02 1.814E-01 1.014E-01 0.000E+00 0.000E+00 3.202E-01 2.828E-01 
3.600E-02 3.391E-02 1.814E-01 8.418E-02 0.000E+00 0.000E+00 2.994E-01 2.655E-01 
3.800E-02 3.089E-02 1.812E-01 7.059E-02 0.000E+00 0.000E+00 2.827E-01 2.518E-01 
4.000E-02 2.825E-02 1.809E-01 5.971E-02 0.000E+00 0.000E+00 2.689E-01 2.406E-01 
4.200E-02 2.594E-02 1.805E-01 5.092E-02 0.000E+00 0.000E+00 2.574E-01 2.315E-01 
4.400E-02 2.390E-02 1.801E-01 4.374E-02 0.000E+00 0.000E+00 2.478E-01 2.239E-01 
4.600E-02 2.209E-02 1.796E-01 3.782E-02 0.000E+00 0.000E+00 2.395E-01 2.174E-01 
4.800E-02 2.048E-02 1.791E-01 3.291E-02 0.000E+00 0.000E+00 2.325E-01 2.120E-01 
5.000E-02 1.904E-02 1.785E-01 2.879E-02 0.000E+00 0.000E+00 2.263E-01 2.073E-01 
5.200E-02 1.774E-02 1.779E-01 2.532E-02 0.000E+00 0.000E+00 2.210E-01 2.032E-01 
5.400E-02 1.657E-02 1.773E-01 2.237E-02 0.000E+00 0.000E+00 2.162E-01 1.996E-01 
5.600E-02 1.552E-02 1.766E-01 1.985E-02 0.000E+00 0.000E+00 2.120E-01 1.965E-01 
5.800E-02 1.456E-02 1.759E-01 1.769E-02 0.000E+00 0.000E+00 2.082E-01 1.936E-01 
6.000E-02 1.369E-02 1.752E-01 1.583E-02 0.000E+00 0.000E+00 2.047E-01 1.911E-01 
6.200E-02 1.289E-02 1.745E-01 1.422E-02 0.000E+00 0.000E+00 2.016E-01 1.887E-01 
6.400E-02 1.216E-02 1.738E-01 1.281E-02 0.000E+00 0.000E+00 1.988E-01 1.866E-01 
6.600E-02 1.149E-02 1.731E-01 1.158E-02 0.000E+00 0.000E+00 1.962E-01 1.847E-01 
6.800E-02 1.087E-02 1.724E-01 1.050E-02 0.000E+00 0.000E+00 1.937E-01 1.829E-01 
7.000E-02 1.030E-02 1.716E-01 9.543E-03 0.000E+00 0.000E+00 1.915E-01 1.812E-01 
7.200E-02 9.777E-03 1.709E-01 8.700E-03 0.000E+00 0.000E+00 1.894E-01 1.796E-01 
7.400E-02 9.290E-03 1.702E-01 7.951E-03 0.000E+00 0.000E+00 1.874E-01 1.781E-01 
7.600E-02 8.839E-03 1.694E-01 7.284E-03 0.000E+00 0.000E+00 1.856E-01 1.767E-01 
7.800E-02 8.419E-03 1.687E-01 6.689E-03 0.000E+00 0.000E+00 1.838E-01 1.754E-01 
8.000E-02 8.028E-03 1.680E-01 6.155E-03 0.000E+00 0.000E+00 1.822E-01 1.741E-01 
8.200E-02 7.664E-03 1.673E-01 5.675E-03 0.000E+00 0.000E+00 1.806E-01 1.729E-01 
8.400E-02 7.324E-03 1.665E-01 5.244E-03 0.000E+00 0.000E+00 1.791E-01 1.718E-01 
8.600E-02 7.006E-03 1.658E-01 4.854E-03 0.000E+00 0.000E+00 1.777E-01 1.707E-01 
8.800E-02 6.707E-03 1.651E-01 4.501E-03 0.000E+00 0.000E+00 1.763E-01 1.696E-01 
9.000E-02 6.428E-03 1.644E-01 4.181E-03 0.000E+00 0.000E+00 1.750E-01 1.686E-01 
9.200E-02 6.165E-03 1.637E-01 3.890E-03 0.000E+00 0.000E+00 1.738E-01 1.676E-01 
9.400E-02 5.918E-03 1.630E-01 3.625E-03 0.000E+00 0.000E+00 1.726E-01 1.666E-01 
9.600E-02 5.686E-03 1.623E-01 3.383E-03 0.000E+00 0.000E+00 1.714E-01 1.657E-01 
9.800E-02 5.466E-03 1.616E-01 3.162E-03 0.000E+00 0.000E+00 1.703E-01 1.648E-01 
1.000E-01 5.260E-03 1.610E-01 2.959E-03 0.000E+00 0.000E+00 1.692E-01 1.639E-01 
1.020E-01 5.064E-03 1.603E-01 2.773E-03 0.000E+00 0.000E+00 1.681E-01 1.630E-01 
1.040E-01 4.879E-03 1.596E-01 2.602E-03 0.000E+00 0.000E+00 1.671E-01 1.622E-01 
1.060E-01 4.704E-03 1.589E-01 2.445E-03 0.000E+00 0.000E+00 1.661E-01 1.614E-01 
1.080E-01 4.539E-03 1.583E-01 2.300E-03 0.000E+00 0.000E+00 1.651E-01 1.606E-01 
1.100E-01 4.381E-03 1.576E-01 2.166E-03 0.000E+00 0.000E+00 1.642E-01 1.598E-01 
1.120E-01 4.232E-03 1.570E-01 2.042E-03 0.000E+00 0.000E+00 1.633E-01 1.590E-01 
1.140E-01 4.090E-03 1.564E-01 1.927E-03 0.000E+00 0.000E+00 1.624E-01 1.583E-01 
1.160E-01 3.955E-03 1.557E-01 1.820E-03 0.000E+00 0.000E+00 1.615E-01 1.575E-01 
1.180E-01 3.827E-03 1.551E-01 1.721E-03 0.000E+00 0.000E+00 1.606E-01 1.568E-01 
1.200E-01 3.705E-03 1.545E-01 1.629E-03 0.000E+00 0.000E+00 1.598E-01 1.561E-01 
1.220E-01 3.588E-03 1.539E-01 1.544E-03 0.000E+00 0.000E+00 1.590E-01 1.554E-01 
1.240E-01 3.477E-03 1.532E-01 1.464E-03 0.000E+00 0.000E+00 1.582E-01 1.547E-01 
1.260E-01 3.371E-03 1.526E-01 1.390E-03 0.000E+00 0.000E+00 1.574E-01 1.540E-01 
1.280E-01 3.270E-03 1.520E-01 1.320E-03 0.000E+00 0.000E+00 1.566E-01 1.534E-01 
1.300E-01 3.173E-03 1.514E-01 1.255E-03 0.000E+00 0.000E+00 1.559E-01 1.527E-01 
1.320E-01 3.080E-03 1.509E-01 1.194E-03 0.000E+00 0.000E+00 1.551E-01 1.521E-01 
1.340E-01 2.991E-03 1.503E-01 1.137E-03 0.000E+00 0.000E+00 1.544E-01 1.514E-01 
1.360E-01 2.907E-03 1.497E-01 1.084E-03 0.000E+00 0.000E+00 1.537E-01 1.508E-01 
1.380E-01 2.825E-03 1.491E-01 1.033E-03 0.000E+00 0.000E+00 1.530E-01 1.502E-01 
1.400E-01 2.747E-03 1.486E-01 9.861E-04 0.000E+00 0.000E+00 1.523E-01 1.496E-01 
1.420E-01 2.672E-03 1.480E-01 9.417E-04 0.000E+00 0.000E+00 1.516E-01 1.490E-01 
1.440E-01 2.600E-03 1.475E-01 8.999E-04 0.000E+00 0.000E+00 1.510E-01 1.484E-01 
1.460E-01 2.531E-03 1.469E-01 8.605E-04 0.000E+00 0.000E+00 1.503E-01 1.478E-01 
1.480E-01 2.465E-03 1.464E-01 8.233E-04 0.000E+00 0.000E+00 1.497E-01 1.472E-01 
1.500E-01 2.401E-03 1.458E-01 7.883E-04 0.000E+00 0.000E+00 1.490E-01 1.466E-01 
1.520E-01 2.340E-03 1.453E-01 7.552E-04 0.000E+00 0.000E+00 1.484E-01 1.461E-01 
1.540E-01 2.281E-03 1.448E-01 7.239E-04 0.000E+00 0.000E+00 1.478E-01 1.455E-01 
1.560E-01 2.224E-03 1.443E-01 6.943E-04 0.000E+00 0.000E+00 1.472E-01 1.450E-01 
1.580E-01 2.169E-03 1.437E-01 6.663E-04 0.000E+00 0.000E+00 1.466E-01 1.444E-01 
1.600E-01 2.116E-03 1.432E-01 6.397E-04 0.000E+00 0.000E+00 1.460E-01 1.439E-01 
1.620E-01 2.065E-03 1.427E-01 6.146E-04 0.000E+00 0.000E+00 1.454E-01 1.433E-01 
1.640E-01 2.016E-03 1.422E-01 5.907E-04 0.000E+00 0.000E+00 1.448E-01 1.428E-01 
1.660E-01 1.969E-03 1.417E-01 5.681E-04 0.000E+00 0.000E+00 1.443E-01 1.423E-01 
1.680E-01 1.923E-03 1.412E-01 5.466E-04 0.000E+00 0.000E+00 1.437E-01 1.418E-01 
1.700E-01 1.879E-03 1.407E-01 5.261E-04 0.000E+00 0.000E+00 1.431E-01 1.413E-01 
1.720E-01 1.836E-03 1.403E-01 5.067E-04 0.000E+00 0.000E+00 1.426E-01 1.408E-01 
1.740E-01 1.795E-03 1.398E-01 4.882E-04 0.000E+00 0.000E+00 1.421E-01 1.403E-01 
1.760E-01 1.755E-03 1.393E-01 4.706E-04 0.000E+00 0.000E+00 1.415E-01 1.398E-01 
1.780E-01 1.717E-03 1.388E-01 4.539E-04 0.000E+00 0.000E+00 1.410E-01 1.393E-01 
1.800E-01 1.679E-03 1.384E-01 4.379E-04 0.000E+00 0.000E+00 1.405E-01 1.388E-01 
1.820E-01 1.643E-03 1.379E-01 4.227E-04 0.000E+00 0.000E+00 1.400E-01 1.383E-01 
1.840E-01 1.608E-03 1.375E-01 4.081E-04 0.000E+00 0.000E+00 1.395E-01 1.379E-01 
1.860E-01 1.574E-03 1.370E-01 3.943E-04 0.000E+00 0.000E+00 1.390E-01 1.374E-01 
1.880E-01 1.542E-03 1.366E-01 3.810E-04 0.000E+00 0.000E+00 1.385E-01 1.369E-01 
1.900E-01 1.510E-03 1.361E-01 3.683E-04 0.000E+00 0.000E+00 1.380E-01 1.365E-01 
1.920E-01 1.479E-03 1.357E-01 3.562E-04 0.000E+00 0.000E+00 1.375E-01 1.360E-01 
1.940E-01 1.449E-03 1.352E-01 3.447E-04 0.000E+00 0.000E+00 1.370E-01 1.356E-01 
1.960E-01 1.420E-03 1.348E-01 3.336E-04 0.000E+00 0.000E+00 1.366E-01 1.351E-01 
1.980E-01 1.392E-03 1.344E-01 3.230E-04 0.000E+00 0.000E+00 1.361E-01 1.347E-01 
2.000E-01 1.365E-03 1.340E-01 3.128E-04 0.000E+00 0.000E+00 1.356E-01 1.343E-01 
2.020E-01 1.338E-03 1.335E-01 3.031E-04 0.000E+00 0.000E+00 1.352E-01 1.338E-01 
3.000E-01 6.114E-04 1.167E-01 8.883E-05 0.000E+00 0.000E+00 1.174E-01 1.168E-01 
4.000E-01 3.449E-04 1.047E-01 3.814E-05 0.000E+00 0.000E+00 1.051E-01 1.047E-01 
5.000E-01 2.210E-04 9.563E-02 2.059E-05 0.000E+00 0.000E+00 9.588E-02 9.566E-02 
6.000E-01 1.536E-04 8.848E-02 1.284E-05 0.000E+00 0.000E+00 8.864E-02 8.849E-02 
8.000E-01 8.647E-05 7.775E-02 6.486E-06 0.000E+00 0.000E+00 7.785E-02 7.776E-02 
1.000E+00 5.536E-05 6.993E-02 4.032E-06 0.000E+00 0.000E+00 6.999E-02 6.993E-02 
1.022E+00 5.301E-05 6.919E-02 3.765E-06 0.000E+00 0.000E+00 6.925E-02 6.920E-02 
1.250E+00 3.545E-05 6.253E-02 2.555E-06 1.753E-05 0.000E+00 6.258E-02 6.255E-02 
1.500E+00 2.461E-05 5.683E-02 1.853E-06 9.685E-05 0.000E+00 5.695E-02 5.693E-02 
2.000E+00 1.385E-05 4.851E-02 1.163E-06 3.854E-04 0.000E+00 4.891E-02 4.889E-02 
2.044E+00 1.325E-05 4.789E-02 1.125E-06 4.153E-04 0.000E+00 4.832E-02 4.831E-02 
3.000E+00 6.154E-06 3.815E-02 6.479E-07 1.102E-03 1.335E-05 3.927E-02 3.927E-02 
4.000E+00 3.462E-06 3.183E-02 4.439E-07 1.786E-03 5.450E-05 3.367E-02 3.367E-02 
5.000E+00 2.215E-06 2.749E-02 3.362E-07 2.397E-03 1.086E-04 2.999E-02 2.999E-02 
6.000E+00 1.538E-06 2.429E-02 2.700E-07 2.945E-03 1.668E-04 2.741E-02 2.740E-02 
7.000E+00 1.130E-06 2.184E-02 2.254E-07 3.433E-03 2.249E-04 2.549E-02 2.549E-02 
8.000E+00 8.655E-07 1.987E-02 1.933E-07 3.872E-03 2.813E-04 2.403E-02 2.403E-02 
9.000E+00 6.839E-07 1.827E-02 1.692E-07 4.273E-03 3.354E-04 2.288E-02 2.288E-02 
1.000E+01 5.539E-07 1.693E-02 1.504E-07 4.634E-03 3.870E-04 2.195E-02 2.195E-02 
1.100E+01 4.577E-07 1.579E-02 1.353E-07 4.964E-03 4.359E-04 2.119E-02 2.119E-02 
1.200E+01 3.846E-07 1.481E-02 1.230E-07 5.266E-03 4.822E-04 2.055E-02 2.055E-02 
1.300E+01 3.278E-07 1.395E-02 1.127E-07 5.549E-03 5.260E-04 2.002E-02 2.002E-02 
1.400E+01 2.826E-07 1.319E-02 1.040E-07 5.811E-03 5.678E-04 1.957E-02 1.957E-02 
1.500E+01 2.462E-07 1.253E-02 9.653E-08 6.055E-03 6.072E-04 1.919E-02 1.919E-02 
1.600E+01 2.164E-07 1.193E-02 9.006E-08 6.287E-03 6.452E-04 1.886E-02 1.886E-02 
1.800E+01 1.709E-07 1.090E-02 7.942E-08 6.709E-03 7.155E-04 1.833E-02 1.833E-02 
2.000E+01 1.385E-07 1.005E-02 7.102E-08 7.087E-03 7.798E-04 1.792E-02 1.792E-02 
2.200E+01 1.145E-07 9.339E-03 6.423E-08 7.431E-03 8.393E-04 1.761E-02 1.761E-02 
2.400E+01 9.617E-08 8.726E-03 5.861E-08 7.744E-03 8.941E-04 1.736E-02 1.736E-02 
2.600E+01 8.195E-08 8.193E-03 5.390E-08 8.030E-03 9.451E-04 1.717E-02 1.717E-02 
2.800E+01 7.064E-08 7.729E-03 4.988E-08 8.295E-03 9.927E-04 1.702E-02 1.702E-02 
3.000E+01 6.154E-08 7.319E-03 4.643E-08 8.541E-03 1.037E-03 1.690E-02 1.690E-02 
4.000E+01 3.462E-08 5.815E-03 3.448E-08 9.541E-03 1.225E-03 1.658E-02 1.658E-02 
5.000E+01 2.215E-08 4.855E-03 2.742E-08 1.030E-02 1.371E-03 1.653E-02 1.653E-02 
6.000E+01 1.538E-08 4.181E-03 2.277E-08 1.091E-02 1.490E-03 1.658E-02 1.658E-02 
8.000E+01 8.655E-09 3.299E-03 1.699E-08 1.182E-02 1.675E-03 1.680E-02 1.680E-02 
1.000E+02 5.539E-09 2.738E-03 1.355E-08 1.249E-02 1.815E-03 1.705E-02 1.705E-02 
1.500E+02 2.461E-09 1.950E-03 8.996E-09 1.361E-02 2.059E-03 1.762E-02 1.762E-02 
2.000E+02 1.384E-09 1.529E-03 6.735E-09 1.430E-02 2.220E-03 1.804E-02 1.804E-02 
3.000E+02 6.154E-10 1.084E-03 4.480E-09 1.512E-02 2.427E-03 1.863E-02 1.863E-02 
4.000E+02 3.462E-10 8.486E-04 3.357E-09 1.561E-02 2.556E-03 1.901E-02 1.901E-02 
5.000E+02 2.215E-10 7.026E-04 2.684E-09 1.593E-02 2.647E-03 1.928E-02 1.928E-02 
6.000E+02 1.538E-10 6.017E-04 2.236E-09 1.617E-02 2.714E-03 1.948E-02 1.948E-02 
8.000E+02 8.655E-11 4.698E-04 1.676E-09 1.648E-02 2.808E-03 1.976E-02 1.976E-02 
1.000E+03 5.539E-11 3.865E-04 1.340E-09 1.668E-02 2.872E-03 1.994E-02 1.994E-02 
1.500E+03 2.461E-11 2.699E-04 8.932E-10 1.698E-02 2.968E-03 2.022E-02 2.022E-02 
2.000E+03 1.384E-11 2.089E-04 6.698E-10 1.715E-02 3.022E-03 2.038E-02 2.038E-02 
3.000E+03 6.154E-12 1.452E-04 4.464E-10 1.733E-02 3.083E-03 2.055E-02 2.055E-02 
4.000E+03 3.462E-12 1.121E-04 3.348E-10 1.742E-02 3.118E-03 2.065E-02 2.065E-02 
5.000E+03 2.215E-12 9.168E-05 2.678E-10 1.748E-02 3.140E-03 2.071E-02 2.071E-02 
6.000E+03 1.538E-12 7.775E-05 2.232E-10 1.753E-02 3.155E-03 2.076E-02 2.076E-02 
8.000E+03 8.655E-13 5.988E-05 1.674E-10 1.758E-02 3.176E-03 2.081E-02 2.081E-02 
1.000E+04 5.539E-13 4.889E-05 1.339E-10 1.761E-02 3.189E-03 2.085E-02 2.085E-02 
1.500E+04 2.461E-13 3.379E-05 8.925E-11 1.766E-02 3.207E-03 2.090E-02 2.090E-02 
2.000E+04 1.384E-13 2.598E-05 6.695E-11 1.769E-02 3.217E-03 2.093E-02 2.093E-02 
3.000E+04 6.154E-14 1.792E-05 4.464E-11 1.772E-02 3.227E-03 2.096E-02 2.096E-02 
4.000E+04 3.462E-14 1.376E-05 3.347E-11 1.773E-02 3.233E-03 2.098E-02 2.098E-02 
5.000E+04 2.215E-14 1.120E-05 2.678E-11 1.774E-02 3.237E-03 2.099E-02 2.099E-02 
6.000E+04 1.538E-14 9.470E-06 2.231E-11 1.775E-02 3.240E-03 2.100E-02 2.100E-02 
8.000E+04 8.655E-15 7.262E-06 1.674E-11 1.775E-02 3.242E-03 2.100E-02 2.100E-02 
1.000E+05 5.539E-15 5.906E-06 1.339E-11 1.776E-02 3.244E-03 2.101E-02 2.101E-02  
