Photon    Coherent Incoher. Photoel. Nuclear  Electron Tot. w/  Tot. wo/ 
Energy    Scatter. Scatter. Absorb.  Pr. Prd. Pr. Prd. Coherent Coherent 

1.000E-03 1.155E+00 1.435E-02 2.792E+03 0.000E+00 0.000E+00 2.794E+03 2.792E+03 
1.500E-03 1.044E+00 2.863E-02 9.143E+02 0.000E+00 0.000E+00 9.153E+02 9.143E+02 
2.000E-03 9.226E-01 4.418E-02 4.027E+02 0.000E+00 0.000E+00 4.037E+02 4.028E+02 
3.000E-03 7.012E-01 7.309E-02 1.228E+02 0.000E+00 0.000E+00 1.236E+02 1.229E+02 
4.000E-03 5.355E-01 9.586E-02 5.184E+01 0.000E+00 0.000E+00 5.247E+01 5.194E+01 
5.000E-03 4.196E-01 1.126E-01 2.628E+01 0.000E+00 0.000E+00 2.681E+01 2.639E+01 
6.000E-03 3.390E-01 1.248E-01 1.499E+01 0.000E+00 0.000E+00 1.545E+01 1.511E+01 
8.000E-03 2.389E-01 1.410E-01 6.114E+00 0.000E+00 0.000E+00 6.494E+00 6.255E+00 
1.000E-02 1.812E-01 1.513E-01 3.025E+00 0.000E+00 0.000E+00 3.357E+00 3.176E+00 
1.200E-02 1.439E-01 1.587E-01 1.693E+00 0.000E+00 0.000E+00 1.996E+00 1.852E+00 
1.400E-02 1.176E-01 1.642E-01 1.034E+00 0.000E+00 0.000E+00 1.315E+00 1.198E+00 
1.500E-02 1.071E-01 1.664E-01 8.279E-01 0.000E+00 0.000E+00 1.101E+00 9.943E-01 
1.600E-02 9.802E-02 1.684E-01 6.723E-01 0.000E+00 0.000E+00 9.387E-01 8.407E-01 
1.800E-02 8.293E-02 1.716E-01 4.594E-01 0.000E+00 0.000E+00 7.139E-01 6.310E-01 
2.000E-02 7.100E-02 1.741E-01 3.263E-01 0.000E+00 0.000E+00 5.714E-01 5.004E-01 
2.200E-02 6.139E-02 1.760E-01 2.393E-01 0.000E+00 0.000E+00 4.766E-01 4.152E-01 
2.400E-02 5.356E-02 1.773E-01 1.801E-01 0.000E+00 0.000E+00 4.110E-01 3.574E-01 
2.600E-02 4.710E-02 1.783E-01 1.386E-01 0.000E+00 0.000E+00 3.640E-01 3.169E-01 
2.800E-02 4.172E-02 1.789E-01 1.087E-01 0.000E+00 0.000E+00 3.294E-01 2.877E-01 
3.000E-02 3.720E-02 1.793E-01 8.668E-02 0.000E+00 0.000E+00 3.032E-01 2.660E-01 
3.200E-02 3.336E-02 1.795E-01 7.011E-02 0.000E+00 0.000E+00 2.830E-01 2.496E-01 
3.400E-02 3.008E-02 1.795E-01 5.742E-02 0.000E+00 0.000E+00 2.670E-01 2.369E-01 
3.600E-02 2.726E-02 1.793E-01 4.757E-02 0.000E+00 0.000E+00 2.542E-01 2.269E-01 
3.800E-02 2.481E-02 1.791E-01 3.980E-02 0.000E+00 0.000E+00 2.437E-01 2.189E-01 
4.000E-02 2.268E-02 1.788E-01 3.360E-02 0.000E+00 0.000E+00 2.350E-01 2.123E-01 
4.200E-02 2.081E-02 1.783E-01 2.859E-02 0.000E+00 0.000E+00 2.277E-01 2.069E-01 
4.400E-02 1.916E-02 1.778E-01 2.452E-02 0.000E+00 0.000E+00 2.215E-01 2.024E-01 
4.600E-02 1.770E-02 1.773E-01 2.117E-02 0.000E+00 0.000E+00 2.162E-01 1.985E-01 
4.800E-02 1.640E-02 1.767E-01 1.838E-02 0.000E+00 0.000E+00 2.115E-01 1.951E-01 
5.000E-02 1.523E-02 1.761E-01 1.606E-02 0.000E+00 0.000E+00 2.074E-01 1.922E-01 
5.200E-02 1.419E-02 1.755E-01 1.410E-02 0.000E+00 0.000E+00 2.038E-01 1.896E-01 
5.400E-02 1.325E-02 1.748E-01 1.244E-02 0.000E+00 0.000E+00 2.005E-01 1.872E-01 
5.600E-02 1.240E-02 1.741E-01 1.103E-02 0.000E+00 0.000E+00 1.975E-01 1.851E-01 
5.800E-02 1.163E-02 1.734E-01 9.818E-03 0.000E+00 0.000E+00 1.948E-01 1.832E-01 
6.000E-02 1.092E-02 1.727E-01 8.773E-03 0.000E+00 0.000E+00 1.924E-01 1.815E-01 
6.200E-02 1.028E-02 1.720E-01 7.869E-03 0.000E+00 0.000E+00 1.901E-01 1.798E-01 
6.400E-02 9.694E-03 1.712E-01 7.082E-03 0.000E+00 0.000E+00 1.880E-01 1.783E-01 
6.600E-02 9.156E-03 1.705E-01 6.395E-03 0.000E+00 0.000E+00 1.861E-01 1.769E-01 
6.800E-02 8.661E-03 1.698E-01 5.792E-03 0.000E+00 0.000E+00 1.842E-01 1.756E-01 
7.000E-02 8.204E-03 1.690E-01 5.261E-03 0.000E+00 0.000E+00 1.825E-01 1.743E-01 
7.200E-02 7.783E-03 1.683E-01 4.791E-03 0.000E+00 0.000E+00 1.809E-01 1.731E-01 
7.400E-02 7.392E-03 1.676E-01 4.375E-03 0.000E+00 0.000E+00 1.793E-01 1.719E-01 
7.600E-02 7.030E-03 1.668E-01 4.004E-03 0.000E+00 0.000E+00 1.779E-01 1.708E-01 
7.800E-02 6.694E-03 1.661E-01 3.674E-03 0.000E+00 0.000E+00 1.765E-01 1.698E-01 
8.000E-02 6.381E-03 1.654E-01 3.378E-03 0.000E+00 0.000E+00 1.751E-01 1.687E-01 
8.200E-02 6.090E-03 1.646E-01 3.112E-03 0.000E+00 0.000E+00 1.738E-01 1.677E-01 
8.400E-02 5.817E-03 1.639E-01 2.873E-03 0.000E+00 0.000E+00 1.726E-01 1.668E-01 
8.600E-02 5.562E-03 1.632E-01 2.658E-03 0.000E+00 0.000E+00 1.714E-01 1.658E-01 
8.800E-02 5.324E-03 1.625E-01 2.463E-03 0.000E+00 0.000E+00 1.703E-01 1.649E-01 
9.000E-02 5.100E-03 1.618E-01 2.286E-03 0.000E+00 0.000E+00 1.692E-01 1.641E-01 
9.200E-02 4.890E-03 1.611E-01 2.125E-03 0.000E+00 0.000E+00 1.681E-01 1.632E-01 
9.400E-02 4.693E-03 1.604E-01 1.979E-03 0.000E+00 0.000E+00 1.670E-01 1.623E-01 
9.600E-02 4.507E-03 1.597E-01 1.846E-03 0.000E+00 0.000E+00 1.660E-01 1.615E-01 
9.800E-02 4.332E-03 1.590E-01 1.724E-03 0.000E+00 0.000E+00 1.650E-01 1.607E-01 
1.000E-01 4.167E-03 1.583E-01 1.613E-03 0.000E+00 0.000E+00 1.641E-01 1.599E-01 
1.020E-01 4.011E-03 1.576E-01 1.511E-03 0.000E+00 0.000E+00 1.632E-01 1.591E-01 
1.040E-01 3.864E-03 1.570E-01 1.417E-03 0.000E+00 0.000E+00 1.622E-01 1.584E-01 
1.060E-01 3.725E-03 1.563E-01 1.330E-03 0.000E+00 0.000E+00 1.614E-01 1.576E-01 
1.080E-01 3.592E-03 1.556E-01 1.251E-03 0.000E+00 0.000E+00 1.605E-01 1.569E-01 
1.100E-01 3.467E-03 1.550E-01 1.177E-03 0.000E+00 0.000E+00 1.596E-01 1.562E-01 
1.120E-01 3.348E-03 1.544E-01 1.109E-03 0.000E+00 0.000E+00 1.588E-01 1.555E-01 
1.140E-01 3.236E-03 1.537E-01 1.046E-03 0.000E+00 0.000E+00 1.580E-01 1.548E-01 
1.160E-01 3.128E-03 1.531E-01 9.882E-04 0.000E+00 0.000E+00 1.572E-01 1.541E-01 
1.180E-01 3.026E-03 1.525E-01 9.341E-04 0.000E+00 0.000E+00 1.564E-01 1.534E-01 
1.200E-01 2.929E-03 1.519E-01 8.838E-04 0.000E+00 0.000E+00 1.557E-01 1.527E-01 
1.220E-01 2.836E-03 1.512E-01 8.370E-04 0.000E+00 0.000E+00 1.549E-01 1.521E-01 
1.240E-01 2.748E-03 1.506E-01 7.935E-04 0.000E+00 0.000E+00 1.542E-01 1.514E-01 
1.260E-01 2.664E-03 1.500E-01 7.528E-04 0.000E+00 0.000E+00 1.535E-01 1.508E-01 
1.280E-01 2.583E-03 1.494E-01 7.149E-04 0.000E+00 0.000E+00 1.527E-01 1.502E-01 
1.300E-01 2.506E-03 1.489E-01 6.794E-04 0.000E+00 0.000E+00 1.520E-01 1.495E-01 
1.320E-01 2.433E-03 1.483E-01 6.462E-04 0.000E+00 0.000E+00 1.514E-01 1.489E-01 
1.340E-01 2.362E-03 1.477E-01 6.151E-04 0.000E+00 0.000E+00 1.507E-01 1.483E-01 
1.360E-01 2.295E-03 1.471E-01 5.859E-04 0.000E+00 0.000E+00 1.500E-01 1.477E-01 
1.380E-01 2.230E-03 1.466E-01 5.586E-04 0.000E+00 0.000E+00 1.494E-01 1.471E-01 
1.400E-01 2.169E-03 1.460E-01 5.329E-04 0.000E+00 0.000E+00 1.487E-01 1.465E-01 
1.420E-01 2.109E-03 1.455E-01 5.087E-04 0.000E+00 0.000E+00 1.481E-01 1.460E-01 
1.440E-01 2.052E-03 1.449E-01 4.860E-04 0.000E+00 0.000E+00 1.475E-01 1.454E-01 
1.460E-01 1.997E-03 1.444E-01 4.646E-04 0.000E+00 0.000E+00 1.468E-01 1.448E-01 
1.480E-01 1.945E-03 1.438E-01 4.444E-04 0.000E+00 0.000E+00 1.462E-01 1.443E-01 
1.500E-01 1.894E-03 1.433E-01 4.253E-04 0.000E+00 0.000E+00 1.456E-01 1.437E-01 
1.520E-01 1.846E-03 1.428E-01 4.073E-04 0.000E+00 0.000E+00 1.450E-01 1.432E-01 
1.540E-01 1.799E-03 1.423E-01 3.903E-04 0.000E+00 0.000E+00 1.445E-01 1.427E-01 
1.560E-01 1.754E-03 1.417E-01 3.743E-04 0.000E+00 0.000E+00 1.439E-01 1.421E-01 
1.580E-01 1.711E-03 1.412E-01 3.591E-04 0.000E+00 0.000E+00 1.433E-01 1.416E-01 
1.600E-01 1.669E-03 1.407E-01 3.447E-04 0.000E+00 0.000E+00 1.427E-01 1.411E-01 
1.620E-01 1.628E-03 1.402E-01 3.310E-04 0.000E+00 0.000E+00 1.422E-01 1.406E-01 
1.640E-01 1.590E-03 1.397E-01 3.181E-04 0.000E+00 0.000E+00 1.416E-01 1.401E-01 
1.660E-01 1.552E-03 1.392E-01 3.058E-04 0.000E+00 0.000E+00 1.411E-01 1.396E-01 
1.680E-01 1.516E-03 1.388E-01 2.942E-04 0.000E+00 0.000E+00 1.406E-01 1.391E-01 
1.700E-01 1.481E-03 1.383E-01 2.831E-04 0.000E+00 0.000E+00 1.400E-01 1.386E-01 
1.720E-01 1.447E-03 1.378E-01 2.726E-04 0.000E+00 0.000E+00 1.395E-01 1.381E-01 
1.740E-01 1.415E-03 1.373E-01 2.625E-04 0.000E+00 0.000E+00 1.390E-01 1.376E-01 
1.760E-01 1.383E-03 1.369E-01 2.530E-04 0.000E+00 0.000E+00 1.385E-01 1.371E-01 
1.780E-01 1.353E-03 1.364E-01 2.439E-04 0.000E+00 0.000E+00 1.380E-01 1.367E-01 
1.800E-01 1.323E-03 1.359E-01 2.353E-04 0.000E+00 0.000E+00 1.375E-01 1.362E-01 
1.820E-01 1.295E-03 1.355E-01 2.271E-04 0.000E+00 0.000E+00 1.370E-01 1.357E-01 
1.840E-01 1.267E-03 1.350E-01 2.192E-04 0.000E+00 0.000E+00 1.365E-01 1.353E-01 
1.860E-01 1.240E-03 1.346E-01 2.117E-04 0.000E+00 0.000E+00 1.361E-01 1.348E-01 
1.880E-01 1.214E-03 1.342E-01 2.045E-04 0.000E+00 0.000E+00 1.356E-01 1.344E-01 
1.900E-01 1.189E-03 1.337E-01 1.977E-04 0.000E+00 0.000E+00 1.351E-01 1.339E-01 
1.920E-01 1.165E-03 1.333E-01 1.911E-04 0.000E+00 0.000E+00 1.346E-01 1.335E-01 
1.940E-01 1.141E-03 1.329E-01 1.849E-04 0.000E+00 0.000E+00 1.342E-01 1.330E-01 
1.960E-01 1.118E-03 1.324E-01 1.789E-04 0.000E+00 0.000E+00 1.337E-01 1.326E-01 
1.980E-01 1.096E-03 1.320E-01 1.732E-04 0.000E+00 0.000E+00 1.333E-01 1.322E-01 
2.000E-01 1.075E-03 1.316E-01 1.677E-04 0.000E+00 0.000E+00 1.328E-01 1.318E-01 
2.020E-01 1.054E-03 1.312E-01 1.625E-04 0.000E+00 0.000E+00 1.324E-01 1.313E-01 
3.000E-01 4.807E-04 1.146E-01 4.724E-05 0.000E+00 0.000E+00 1.152E-01 1.147E-01 
4.000E-01 2.710E-04 1.028E-01 2.020E-05 0.000E+00 0.000E+00 1.031E-01 1.028E-01 
5.000E-01 1.736E-04 9.392E-02 1.088E-05 0.000E+00 0.000E+00 9.410E-02 9.393E-02 
6.000E-01 1.206E-04 8.688E-02 6.773E-06 0.000E+00 0.000E+00 8.701E-02 8.689E-02 
8.000E-01 6.790E-05 7.634E-02 3.417E-06 0.000E+00 0.000E+00 7.641E-02 7.634E-02 
1.000E+00 4.347E-05 6.865E-02 2.124E-06 0.000E+00 0.000E+00 6.870E-02 6.865E-02 
1.022E+00 4.162E-05 6.794E-02 1.972E-06 0.000E+00 0.000E+00 6.798E-02 6.794E-02 
1.250E+00 2.783E-05 6.139E-02 1.339E-06 1.521E-05 0.000E+00 6.143E-02 6.141E-02 
1.500E+00 1.932E-05 5.580E-02 9.717E-07 8.434E-05 0.000E+00 5.591E-02 5.589E-02 
2.000E+00 1.087E-05 4.762E-02 6.120E-07 3.360E-04 0.000E+00 4.796E-02 4.795E-02 
2.044E+00 1.041E-05 4.703E-02 5.920E-07 3.622E-04 0.000E+00 4.740E-02 4.739E-02 
3.000E+00 4.832E-06 3.746E-02 3.425E-07 9.616E-04 1.311E-05 3.844E-02 3.843E-02 
4.000E+00 2.718E-06 3.125E-02 2.353E-07 1.561E-03 5.351E-05 3.286E-02 3.286E-02 
5.000E+00 1.739E-06 2.699E-02 1.785E-07 2.094E-03 1.066E-04 2.919E-02 2.919E-02 
6.000E+00 1.208E-06 2.385E-02 1.436E-07 2.574E-03 1.638E-04 2.659E-02 2.659E-02 
7.000E+00 8.873E-07 2.144E-02 1.200E-07 3.001E-03 2.208E-04 2.466E-02 2.466E-02 
8.000E+00 6.795E-07 1.951E-02 1.030E-07 3.386E-03 2.762E-04 2.317E-02 2.317E-02 
9.000E+00 5.369E-07 1.793E-02 9.021E-08 3.737E-03 3.293E-04 2.200E-02 2.200E-02 
1.000E+01 4.349E-07 1.662E-02 8.023E-08 4.054E-03 3.799E-04 2.105E-02 2.105E-02 
1.100E+01 3.594E-07 1.550E-02 7.221E-08 4.343E-03 4.280E-04 2.027E-02 2.027E-02 
1.200E+01 3.020E-07 1.454E-02 6.565E-08 4.609E-03 4.734E-04 1.962E-02 1.962E-02 
1.300E+01 2.573E-07 1.369E-02 6.018E-08 4.856E-03 5.164E-04 1.906E-02 1.906E-02 
1.400E+01 2.219E-07 1.295E-02 5.554E-08 5.086E-03 5.575E-04 1.860E-02 1.860E-02 
1.500E+01 1.933E-07 1.230E-02 5.157E-08 5.300E-03 5.964E-04 1.820E-02 1.820E-02 
1.600E+01 1.699E-07 1.171E-02 4.813E-08 5.504E-03 6.334E-04 1.785E-02 1.785E-02 
1.800E+01 1.342E-07 1.070E-02 4.246E-08 5.874E-03 7.026E-04 1.728E-02 1.728E-02 
2.000E+01 1.087E-07 9.870E-03 3.798E-08 6.205E-03 7.659E-04 1.684E-02 1.684E-02 
2.200E+01 8.986E-08 9.170E-03 3.435E-08 6.509E-03 8.243E-04 1.650E-02 1.650E-02 
2.400E+01 7.549E-08 8.569E-03 3.136E-08 6.784E-03 8.783E-04 1.623E-02 1.623E-02 
2.600E+01 6.434E-08 8.044E-03 2.884E-08 7.036E-03 9.283E-04 1.601E-02 1.601E-02 
2.800E+01 5.546E-08 7.589E-03 2.669E-08 7.268E-03 9.753E-04 1.583E-02 1.583E-02 
3.000E+01 4.832E-08 7.185E-03 2.485E-08 7.484E-03 1.019E-03 1.569E-02 1.569E-02 
4.000E+01 2.718E-08 5.710E-03 1.847E-08 8.366E-03 1.204E-03 1.528E-02 1.528E-02 
5.000E+01 1.739E-08 4.767E-03 1.469E-08 9.034E-03 1.348E-03 1.515E-02 1.515E-02 
6.000E+01 1.208E-08 4.106E-03 1.220E-08 9.565E-03 1.465E-03 1.514E-02 1.514E-02 
8.000E+01 6.795E-09 3.239E-03 9.105E-09 1.037E-02 1.647E-03 1.525E-02 1.525E-02 
1.000E+02 4.348E-09 2.688E-03 7.262E-09 1.096E-02 1.785E-03 1.543E-02 1.543E-02 
1.500E+02 1.932E-09 1.914E-03 4.822E-09 1.195E-02 2.026E-03 1.589E-02 1.589E-02 
2.000E+02 1.087E-09 1.501E-03 3.611E-09 1.256E-02 2.185E-03 1.625E-02 1.625E-02 
3.000E+02 4.831E-10 1.064E-03 2.402E-09 1.331E-02 2.391E-03 1.676E-02 1.676E-02 
4.000E+02 2.718E-10 8.331E-04 1.800E-09 1.375E-02 2.520E-03 1.710E-02 1.710E-02 
5.000E+02 1.739E-10 6.897E-04 1.439E-09 1.404E-02 2.610E-03 1.734E-02 1.734E-02 
6.000E+02 1.208E-10 5.906E-04 1.199E-09 1.426E-02 2.678E-03 1.753E-02 1.753E-02 
8.000E+02 6.795E-11 4.612E-04 8.986E-10 1.454E-02 2.772E-03 1.778E-02 1.778E-02 
1.000E+03 4.348E-11 3.794E-04 7.188E-10 1.473E-02 2.836E-03 1.795E-02 1.795E-02 
1.500E+03 1.932E-11 2.650E-04 4.790E-10 1.501E-02 2.933E-03 1.821E-02 1.821E-02 
2.000E+03 1.087E-11 2.051E-04 3.592E-10 1.516E-02 2.988E-03 1.836E-02 1.836E-02 
3.000E+03 4.831E-12 1.426E-04 2.394E-10 1.533E-02 3.049E-03 1.852E-02 1.852E-02 
4.000E+03 2.718E-12 1.101E-04 1.795E-10 1.542E-02 3.084E-03 1.861E-02 1.861E-02 
5.000E+03 1.739E-12 9.002E-05 1.436E-10 1.547E-02 3.107E-03 1.867E-02 1.867E-02 
6.000E+03 1.208E-12 7.633E-05 1.197E-10 1.551E-02 3.123E-03 1.871E-02 1.871E-02 
8.000E+03 6.795E-13 5.879E-05 8.975E-11 1.557E-02 3.143E-03 1.877E-02 1.877E-02 
1.000E+04 4.348E-13 4.800E-05 7.180E-11 1.560E-02 3.157E-03 1.880E-02 1.880E-02 
1.500E+04 1.932E-13 3.318E-05 4.786E-11 1.564E-02 3.175E-03 1.885E-02 1.885E-02 
2.000E+04 1.087E-13 2.551E-05 3.590E-11 1.567E-02 3.185E-03 1.888E-02 1.888E-02 
3.000E+04 4.831E-14 1.759E-05 2.394E-11 1.569E-02 3.195E-03 1.891E-02 1.891E-02 
4.000E+04 2.718E-14 1.351E-05 1.795E-11 1.571E-02 3.202E-03 1.892E-02 1.892E-02 
5.000E+04 1.739E-14 1.100E-05 1.436E-11 1.571E-02 3.205E-03 1.893E-02 1.893E-02 
6.000E+04 1.208E-14 9.296E-06 1.197E-11 1.572E-02 3.208E-03 1.894E-02 1.894E-02 
8.000E+04 6.795E-15 7.130E-06 8.975E-12 1.573E-02 3.211E-03 1.895E-02 1.895E-02 
1.000E+05 4.348E-15 5.798E-06 7.180E-12 1.573E-02 3.213E-03 1.895E-02 1.895E-02  
