Photon    Coherent Incoher. Photoel. Nuclear  Electron Tot. w/  Tot. wo/ 
Energy    Scatter. Scatter. Absorb.  Pr. Prd. Pr. Prd. Coherent Coherent 

1.000E-03 1.212E+00 1.471E-02 3.072E+03 0.000E+00 0.000E+00 3.073E+03 3.072E+03 
1.000E-03 1.212E+00 1.471E-02 3.072E+03 0.000E+00 0.000E+00 3.073E+03 3.072E+03 
1.500E-03 1.103E+00 2.940E-02 1.016E+03 0.000E+00 0.000E+00 1.017E+03 1.016E+03 
2.000E-03 9.821E-01 4.543E-02 4.506E+02 0.000E+00 0.000E+00 4.516E+02 4.506E+02 
2.145E-03 9.467E-01 5.006E-02 3.682E+02 0.000E+00 0.000E+00 3.692E+02 3.683E+02 
2.145E-03 9.467E-01 5.006E-02 3.705E+02 0.000E+00 0.000E+00 3.715E+02 3.705E+02 
2.303E-03 9.091E-01 5.498E-02 3.020E+02 0.000E+00 0.000E+00 3.030E+02 3.021E+02 
2.472E-03 8.698E-01 6.015E-02 2.459E+02 0.000E+00 0.000E+00 2.469E+02 2.460E+02 
2.472E-03 8.698E-01 6.015E-02 2.496E+02 0.000E+00 0.000E+00 2.506E+02 2.497E+02 
2.641E-03 8.317E-01 6.517E-02 2.060E+02 0.000E+00 0.000E+00 2.069E+02 2.060E+02 
2.822E-03 7.927E-01 7.035E-02 1.698E+02 0.000E+00 0.000E+00 1.706E+02 1.698E+02 
2.822E-03 7.927E-01 7.035E-02 1.727E+02 0.000E+00 0.000E+00 1.735E+02 1.728E+02 
3.000E-03 7.560E-01 7.522E-02 1.446E+02 0.000E+00 0.000E+00 1.454E+02 1.447E+02 
3.607E-03 6.435E-01 9.025E-02 8.394E+01 0.000E+00 0.000E+00 8.467E+01 8.403E+01 
3.607E-03 6.435E-01 9.025E-02 8.607E+01 0.000E+00 0.000E+00 8.681E+01 8.616E+01 
4.000E-03 5.816E-01 9.864E-02 6.330E+01 0.000E+00 0.000E+00 6.398E+01 6.340E+01 
5.000E-03 4.571E-01 1.159E-01 3.243E+01 0.000E+00 0.000E+00 3.300E+01 3.254E+01 
6.000E-03 3.693E-01 1.285E-01 1.865E+01 0.000E+00 0.000E+00 1.915E+01 1.878E+01 
7.000E-03 3.060E-01 1.380E-01 1.163E+01 0.000E+00 0.000E+00 1.208E+01 1.177E+01 
7.112E-03 3.001E-01 1.389E-01 1.108E+01 0.000E+00 0.000E+00 1.152E+01 1.122E+01 
7.112E-03 3.001E-01 1.389E-01 1.143E+01 0.000E+00 0.000E+00 1.187E+01 1.157E+01 
8.000E-03 2.592E-01 1.452E-01 7.974E+00 0.000E+00 0.000E+00 8.379E+00 8.119E+00 
9.000E-03 2.235E-01 1.510E-01 5.546E+00 0.000E+00 0.000E+00 5.921E+00 5.697E+00 
1.000E-02 1.956E-01 1.557E-01 4.001E+00 0.000E+00 0.000E+00 4.352E+00 4.156E+00 
1.100E-02 1.732E-01 1.597E-01 2.973E+00 0.000E+00 0.000E+00 3.306E+00 3.133E+00 
1.300E-02 1.394E-01 1.659E-01 1.762E+00 0.000E+00 0.000E+00 2.067E+00 1.928E+00 
1.500E-02 1.150E-01 1.706E-01 1.122E+00 0.000E+00 0.000E+00 1.408E+00 1.293E+00 
1.700E-02 9.662E-02 1.742E-01 7.550E-01 0.000E+00 0.000E+00 1.026E+00 9.292E-01 
1.900E-02 8.230E-02 1.770E-01 5.301E-01 0.000E+00 0.000E+00 7.893E-01 7.070E-01 
2.000E-02 7.628E-02 1.781E-01 4.501E-01 0.000E+00 0.000E+00 7.044E-01 6.282E-01 
2.100E-02 7.088E-02 1.791E-01 3.851E-01 0.000E+00 0.000E+00 6.351E-01 5.642E-01 
2.300E-02 6.163E-02 1.806E-01 2.878E-01 0.000E+00 0.000E+00 5.300E-01 4.684E-01 
2.500E-02 5.404E-02 1.817E-01 2.202E-01 0.000E+00 0.000E+00 4.560E-01 4.019E-01 
2.700E-02 4.774E-02 1.825E-01 1.719E-01 0.000E+00 0.000E+00 4.021E-01 3.544E-01 
2.900E-02 4.246E-02 1.830E-01 1.365E-01 0.000E+00 0.000E+00 3.620E-01 3.195E-01 
3.000E-02 4.013E-02 1.832E-01 1.223E-01 0.000E+00 0.000E+00 3.456E-01 3.055E-01 
3.100E-02 3.799E-02 1.833E-01 1.100E-01 0.000E+00 0.000E+00 3.313E-01 2.933E-01 
3.300E-02 3.419E-02 1.834E-01 8.989E-02 0.000E+00 0.000E+00 3.074E-01 2.732E-01 
3.500E-02 3.092E-02 1.833E-01 7.429E-02 0.000E+00 0.000E+00 2.885E-01 2.576E-01 
3.700E-02 2.810E-02 1.831E-01 6.203E-02 0.000E+00 0.000E+00 2.732E-01 2.451E-01 
3.900E-02 2.564E-02 1.828E-01 5.229E-02 0.000E+00 0.000E+00 2.607E-01 2.351E-01 
4.000E-02 2.453E-02 1.826E-01 4.816E-02 0.000E+00 0.000E+00 2.553E-01 2.307E-01 
4.100E-02 2.349E-02 1.824E-01 4.444E-02 0.000E+00 0.000E+00 2.503E-01 2.268E-01 
4.300E-02 2.160E-02 1.819E-01 3.806E-02 0.000E+00 0.000E+00 2.416E-01 2.200E-01 
4.500E-02 1.993E-02 1.814E-01 3.283E-02 0.000E+00 0.000E+00 2.341E-01 2.142E-01 
4.700E-02 1.844E-02 1.808E-01 2.849E-02 0.000E+00 0.000E+00 2.277E-01 2.093E-01 
4.900E-02 1.712E-02 1.802E-01 2.487E-02 0.000E+00 0.000E+00 2.222E-01 2.051E-01 
5.000E-02 1.651E-02 1.799E-01 2.328E-02 0.000E+00 0.000E+00 2.197E-01 2.032E-01 
5.100E-02 1.593E-02 1.796E-01 2.183E-02 0.000E+00 0.000E+00 2.173E-01 2.014E-01 
5.300E-02 1.486E-02 1.789E-01 1.925E-02 0.000E+00 0.000E+00 2.130E-01 1.981E-01 
5.500E-02 1.389E-02 1.782E-01 1.706E-02 0.000E+00 0.000E+00 2.092E-01 1.953E-01 
5.700E-02 1.302E-02 1.775E-01 1.518E-02 0.000E+00 0.000E+00 2.057E-01 1.927E-01 
5.900E-02 1.222E-02 1.768E-01 1.356E-02 0.000E+00 0.000E+00 2.026E-01 1.903E-01 
6.000E-02 1.185E-02 1.764E-01 1.283E-02 0.000E+00 0.000E+00 2.011E-01 1.893E-01 
6.100E-02 1.150E-02 1.761E-01 1.216E-02 0.000E+00 0.000E+00 1.997E-01 1.882E-01 
6.300E-02 1.084E-02 1.753E-01 1.094E-02 0.000E+00 0.000E+00 1.971E-01 1.863E-01 
6.500E-02 1.023E-02 1.746E-01 9.879E-03 0.000E+00 0.000E+00 1.947E-01 1.844E-01 
6.700E-02 9.671E-03 1.738E-01 8.947E-03 0.000E+00 0.000E+00 1.924E-01 1.828E-01 
6.900E-02 9.157E-03 1.731E-01 8.126E-03 0.000E+00 0.000E+00 1.904E-01 1.812E-01 
7.100E-02 8.682E-03 1.723E-01 7.401E-03 0.000E+00 0.000E+00 1.884E-01 1.797E-01 
7.300E-02 8.243E-03 1.716E-01 6.758E-03 0.000E+00 0.000E+00 1.866E-01 1.783E-01 
7.500E-02 7.836E-03 1.708E-01 6.186E-03 0.000E+00 0.000E+00 1.848E-01 1.770E-01 
7.700E-02 7.459E-03 1.701E-01 5.676E-03 0.000E+00 0.000E+00 1.832E-01 1.757E-01 
7.900E-02 7.107E-03 1.693E-01 5.219E-03 0.000E+00 0.000E+00 1.817E-01 1.745E-01 
8.000E-02 6.941E-03 1.690E-01 5.009E-03 0.000E+00 0.000E+00 1.809E-01 1.740E-01 
8.100E-02 6.780E-03 1.686E-01 4.809E-03 0.000E+00 0.000E+00 1.802E-01 1.734E-01 
8.300E-02 6.475E-03 1.678E-01 4.440E-03 0.000E+00 0.000E+00 1.788E-01 1.723E-01 
8.500E-02 6.189E-03 1.671E-01 4.108E-03 0.000E+00 0.000E+00 1.774E-01 1.712E-01 
8.700E-02 5.922E-03 1.664E-01 3.807E-03 0.000E+00 0.000E+00 1.761E-01 1.702E-01 
8.900E-02 5.672E-03 1.657E-01 3.534E-03 0.000E+00 0.000E+00 1.749E-01 1.692E-01 
9.100E-02 5.437E-03 1.649E-01 3.286E-03 0.000E+00 0.000E+00 1.737E-01 1.682E-01 
9.300E-02 5.216E-03 1.642E-01 3.061E-03 0.000E+00 0.000E+00 1.725E-01 1.673E-01 
9.500E-02 5.009E-03 1.635E-01 2.855E-03 0.000E+00 0.000E+00 1.714E-01 1.664E-01 
9.700E-02 4.813E-03 1.628E-01 2.667E-03 0.000E+00 0.000E+00 1.703E-01 1.655E-01 
9.900E-02 4.629E-03 1.621E-01 2.495E-03 0.000E+00 0.000E+00 1.692E-01 1.646E-01 
1.000E-01 4.540E-03 1.618E-01 2.415E-03 0.000E+00 0.000E+00 1.687E-01 1.642E-01 
1.010E-01 4.455E-03 1.614E-01 2.338E-03 0.000E+00 0.000E+00 1.682E-01 1.638E-01 
1.030E-01 4.290E-03 1.607E-01 2.193E-03 0.000E+00 0.000E+00 1.672E-01 1.629E-01 
1.050E-01 4.134E-03 1.601E-01 2.059E-03 0.000E+00 0.000E+00 1.663E-01 1.621E-01 
1.070E-01 3.987E-03 1.594E-01 1.936E-03 0.000E+00 0.000E+00 1.653E-01 1.613E-01 
1.090E-01 3.847E-03 1.587E-01 1.823E-03 0.000E+00 0.000E+00 1.644E-01 1.606E-01 
1.110E-01 3.715E-03 1.581E-01 1.718E-03 0.000E+00 0.000E+00 1.635E-01 1.598E-01 
1.130E-01 3.589E-03 1.574E-01 1.621E-03 0.000E+00 0.000E+00 1.626E-01 1.590E-01 
1.150E-01 3.469E-03 1.568E-01 1.531E-03 0.000E+00 0.000E+00 1.618E-01 1.583E-01 
1.170E-01 3.356E-03 1.561E-01 1.447E-03 0.000E+00 0.000E+00 1.609E-01 1.576E-01 
1.190E-01 3.247E-03 1.555E-01 1.370E-03 0.000E+00 0.000E+00 1.601E-01 1.569E-01 
1.210E-01 3.144E-03 1.549E-01 1.297E-03 0.000E+00 0.000E+00 1.593E-01 1.562E-01 
1.230E-01 3.046E-03 1.543E-01 1.230E-03 0.000E+00 0.000E+00 1.585E-01 1.555E-01 
1.250E-01 2.952E-03 1.536E-01 1.167E-03 0.000E+00 0.000E+00 1.578E-01 1.548E-01 
1.270E-01 2.862E-03 1.530E-01 1.108E-03 0.000E+00 0.000E+00 1.570E-01 1.541E-01 
1.290E-01 2.777E-03 1.524E-01 1.054E-03 0.000E+00 0.000E+00 1.563E-01 1.535E-01 
1.310E-01 2.695E-03 1.518E-01 1.002E-03 0.000E+00 0.000E+00 1.555E-01 1.528E-01 
1.330E-01 2.616E-03 1.512E-01 9.543E-04 0.000E+00 0.000E+00 1.548E-01 1.522E-01 
1.350E-01 2.542E-03 1.507E-01 9.092E-04 0.000E+00 0.000E+00 1.541E-01 1.516E-01 
1.370E-01 2.470E-03 1.501E-01 8.669E-04 0.000E+00 0.000E+00 1.534E-01 1.510E-01 
1.390E-01 2.401E-03 1.495E-01 8.272E-04 0.000E+00 0.000E+00 1.527E-01 1.503E-01 
1.410E-01 2.335E-03 1.489E-01 7.898E-04 0.000E+00 0.000E+00 1.521E-01 1.497E-01 
1.430E-01 2.272E-03 1.484E-01 7.546E-04 0.000E+00 0.000E+00 1.514E-01 1.491E-01 
1.450E-01 2.211E-03 1.478E-01 7.215E-04 0.000E+00 0.000E+00 1.508E-01 1.486E-01 
1.470E-01 2.152E-03 1.473E-01 6.902E-04 0.000E+00 0.000E+00 1.501E-01 1.480E-01 
1.490E-01 2.096E-03 1.467E-01 6.608E-04 0.000E+00 0.000E+00 1.495E-01 1.474E-01 
1.500E-01 2.069E-03 1.465E-01 6.466E-04 0.000E+00 0.000E+00 1.492E-01 1.471E-01 
1.510E-01 2.042E-03 1.462E-01 6.329E-04 0.000E+00 0.000E+00 1.489E-01 1.468E-01 
1.530E-01 1.990E-03 1.457E-01 6.066E-04 0.000E+00 0.000E+00 1.483E-01 1.463E-01 
1.550E-01 1.940E-03 1.451E-01 5.818E-04 0.000E+00 0.000E+00 1.477E-01 1.457E-01 
1.570E-01 1.892E-03 1.446E-01 5.582E-04 0.000E+00 0.000E+00 1.471E-01 1.452E-01 
1.590E-01 1.846E-03 1.441E-01 5.359E-04 0.000E+00 0.000E+00 1.465E-01 1.446E-01 
1.610E-01 1.801E-03 1.436E-01 5.148E-04 0.000E+00 0.000E+00 1.459E-01 1.441E-01 
1.630E-01 1.758E-03 1.431E-01 4.948E-04 0.000E+00 0.000E+00 1.453E-01 1.436E-01 
1.650E-01 1.716E-03 1.426E-01 4.757E-04 0.000E+00 0.000E+00 1.448E-01 1.430E-01 
1.670E-01 1.676E-03 1.421E-01 4.577E-04 0.000E+00 0.000E+00 1.442E-01 1.425E-01 
1.690E-01 1.637E-03 1.416E-01 4.405E-04 0.000E+00 0.000E+00 1.437E-01 1.420E-01 
1.710E-01 1.600E-03 1.411E-01 4.242E-04 0.000E+00 0.000E+00 1.431E-01 1.415E-01 
1.730E-01 1.564E-03 1.406E-01 4.087E-04 0.000E+00 0.000E+00 1.426E-01 1.410E-01 
1.750E-01 1.529E-03 1.401E-01 3.939E-04 0.000E+00 0.000E+00 1.421E-01 1.405E-01 
1.770E-01 1.495E-03 1.397E-01 3.799E-04 0.000E+00 0.000E+00 1.415E-01 1.400E-01 
1.790E-01 1.462E-03 1.392E-01 3.665E-04 0.000E+00 0.000E+00 1.410E-01 1.396E-01 
1.810E-01 1.431E-03 1.387E-01 3.537E-04 0.000E+00 0.000E+00 1.405E-01 1.391E-01 
1.830E-01 1.400E-03 1.383E-01 3.415E-04 0.000E+00 0.000E+00 1.400E-01 1.386E-01 
1.850E-01 1.370E-03 1.378E-01 3.299E-04 0.000E+00 0.000E+00 1.395E-01 1.381E-01 
1.870E-01 1.341E-03 1.373E-01 3.188E-04 0.000E+00 0.000E+00 1.390E-01 1.377E-01 
1.890E-01 1.314E-03 1.369E-01 3.081E-04 0.000E+00 0.000E+00 1.385E-01 1.372E-01 
1.910E-01 1.287E-03 1.365E-01 2.980E-04 0.000E+00 0.000E+00 1.380E-01 1.368E-01 
1.930E-01 1.260E-03 1.360E-01 2.883E-04 0.000E+00 0.000E+00 1.376E-01 1.363E-01 
1.950E-01 1.235E-03 1.356E-01 2.790E-04 0.000E+00 0.000E+00 1.371E-01 1.359E-01 
1.970E-01 1.210E-03 1.351E-01 2.701E-04 0.000E+00 0.000E+00 1.366E-01 1.354E-01 
1.990E-01 1.187E-03 1.347E-01 2.616E-04 0.000E+00 0.000E+00 1.362E-01 1.350E-01 
2.000E-01 1.175E-03 1.345E-01 2.575E-04 0.000E+00 0.000E+00 1.359E-01 1.348E-01 
3.000E-01 5.261E-04 1.172E-01 7.338E-05 0.000E+00 0.000E+00 1.178E-01 1.173E-01 
4.000E-01 2.967E-04 1.051E-01 3.158E-05 0.000E+00 0.000E+00 1.054E-01 1.051E-01 
5.000E-01 1.902E-04 9.600E-02 1.708E-05 0.000E+00 0.000E+00 9.620E-02 9.601E-02 
6.000E-01 1.322E-04 8.881E-02 1.065E-05 0.000E+00 0.000E+00 8.895E-02 8.882E-02 
8.000E-01 7.438E-05 7.803E-02 5.385E-06 0.000E+00 0.000E+00 7.811E-02 7.804E-02 
1.000E+00 4.762E-05 7.018E-02 3.348E-06 0.000E+00 0.000E+00 7.023E-02 7.018E-02 
1.022E+00 4.560E-05 6.945E-02 3.128E-06 0.000E+00 0.000E+00 6.950E-02 6.945E-02 
1.250E+00 3.049E-05 6.275E-02 2.122E-06 1.592E-05 0.000E+00 6.280E-02 6.277E-02 
1.500E+00 2.117E-05 5.704E-02 1.538E-06 8.809E-05 0.000E+00 5.715E-02 5.713E-02 
2.000E+00 1.191E-05 4.868E-02 9.641E-07 3.507E-04 0.000E+00 4.904E-02 4.903E-02 
2.044E+00 1.140E-05 4.807E-02 9.324E-07 3.780E-04 0.000E+00 4.846E-02 4.845E-02 
3.000E+00 5.294E-06 3.829E-02 5.360E-07 1.003E-03 1.340E-05 3.931E-02 3.931E-02 
4.000E+00 2.978E-06 3.194E-02 3.667E-07 1.627E-03 5.470E-05 3.363E-02 3.362E-02 
5.000E+00 1.906E-06 2.759E-02 2.775E-07 2.183E-03 1.090E-04 2.988E-02 2.988E-02 
6.000E+00 1.323E-06 2.438E-02 2.227E-07 2.683E-03 1.674E-04 2.723E-02 2.723E-02 
7.000E+00 9.723E-07 2.191E-02 1.859E-07 3.128E-03 2.257E-04 2.527E-02 2.527E-02 
8.000E+00 7.445E-07 1.994E-02 1.593E-07 3.528E-03 2.823E-04 2.376E-02 2.376E-02 
9.000E+00 5.883E-07 1.833E-02 1.394E-07 3.894E-03 3.366E-04 2.256E-02 2.256E-02 
1.000E+01 4.765E-07 1.699E-02 1.239E-07 4.224E-03 3.884E-04 2.160E-02 2.160E-02 
1.100E+01 3.938E-07 1.584E-02 1.114E-07 4.525E-03 4.375E-04 2.081E-02 2.081E-02 
1.200E+01 3.309E-07 1.486E-02 1.012E-07 4.801E-03 4.840E-04 2.014E-02 2.014E-02 
1.300E+01 2.819E-07 1.400E-02 9.277E-08 5.058E-03 5.279E-04 1.958E-02 1.958E-02 
1.400E+01 2.431E-07 1.324E-02 8.558E-08 5.297E-03 5.699E-04 1.911E-02 1.911E-02 
1.500E+01 2.118E-07 1.257E-02 7.944E-08 5.520E-03 6.096E-04 1.870E-02 1.870E-02 
1.600E+01 1.861E-07 1.197E-02 7.411E-08 5.733E-03 6.475E-04 1.835E-02 1.835E-02 
1.800E+01 1.471E-07 1.094E-02 6.535E-08 6.117E-03 7.182E-04 1.778E-02 1.778E-02 
2.000E+01 1.191E-07 1.009E-02 5.842E-08 6.462E-03 7.828E-04 1.733E-02 1.733E-02 
2.200E+01 9.845E-08 9.373E-03 5.283E-08 6.778E-03 8.425E-04 1.699E-02 1.699E-02 
2.400E+01 8.272E-08 8.759E-03 4.821E-08 7.063E-03 8.977E-04 1.672E-02 1.672E-02 
2.600E+01 7.049E-08 8.223E-03 4.433E-08 7.325E-03 9.488E-04 1.650E-02 1.650E-02 
2.800E+01 6.077E-08 7.758E-03 4.102E-08 7.567E-03 9.968E-04 1.632E-02 1.632E-02 
3.000E+01 5.294E-08 7.345E-03 3.818E-08 7.791E-03 1.041E-03 1.618E-02 1.618E-02 
4.000E+01 2.978E-08 5.837E-03 2.835E-08 8.708E-03 1.230E-03 1.577E-02 1.577E-02 
5.000E+01 1.906E-08 4.873E-03 2.254E-08 9.403E-03 1.377E-03 1.565E-02 1.565E-02 
6.000E+01 1.323E-08 4.197E-03 1.871E-08 9.955E-03 1.497E-03 1.565E-02 1.565E-02 
8.000E+01 7.445E-09 3.311E-03 1.396E-08 1.079E-02 1.684E-03 1.579E-02 1.579E-02 
1.000E+02 4.765E-09 2.748E-03 1.114E-08 1.141E-02 1.825E-03 1.598E-02 1.598E-02 
1.500E+02 2.117E-09 1.957E-03 7.392E-09 1.243E-02 2.071E-03 1.646E-02 1.646E-02 
2.000E+02 1.191E-09 1.534E-03 5.534E-09 1.306E-02 2.235E-03 1.683E-02 1.683E-02 
3.000E+02 5.294E-10 1.087E-03 3.681E-09 1.384E-02 2.445E-03 1.737E-02 1.737E-02 
4.000E+02 2.978E-10 8.517E-04 2.758E-09 1.429E-02 2.578E-03 1.772E-02 1.772E-02 
5.000E+02 1.905E-10 7.051E-04 2.205E-09 1.459E-02 2.670E-03 1.796E-02 1.796E-02 
6.000E+02 1.323E-10 6.038E-04 1.837E-09 1.481E-02 2.739E-03 1.815E-02 1.815E-02 
8.000E+02 7.445E-11 4.715E-04 1.377E-09 1.510E-02 2.836E-03 1.841E-02 1.841E-02 
1.000E+03 4.765E-11 3.879E-04 1.101E-09 1.530E-02 2.902E-03 1.859E-02 1.859E-02 
1.500E+03 2.117E-11 2.709E-04 7.339E-10 1.558E-02 3.001E-03 1.885E-02 1.885E-02 
2.000E+03 1.191E-11 2.097E-04 5.503E-10 1.574E-02 3.057E-03 1.900E-02 1.900E-02 
3.000E+03 5.294E-12 1.458E-04 3.668E-10 1.590E-02 3.120E-03 1.917E-02 1.917E-02 
4.000E+03 2.978E-12 1.125E-04 2.751E-10 1.599E-02 3.157E-03 1.926E-02 1.926E-02 
5.000E+03 1.905E-12 9.202E-05 2.200E-10 1.605E-02 3.180E-03 1.932E-02 1.932E-02 
6.000E+03 1.323E-12 7.803E-05 1.833E-10 1.609E-02 3.196E-03 1.937E-02 1.937E-02 
8.000E+03 7.445E-13 6.010E-05 1.375E-10 1.615E-02 3.217E-03 1.942E-02 1.942E-02 
1.000E+04 4.765E-13 4.907E-05 1.100E-10 1.618E-02 3.231E-03 1.946E-02 1.946E-02 
1.500E+04 2.117E-13 3.391E-05 7.333E-11 1.623E-02 3.249E-03 1.951E-02 1.951E-02 
2.000E+04 1.191E-13 2.607E-05 5.500E-11 1.625E-02 3.260E-03 1.954E-02 1.954E-02 
3.000E+04 5.294E-14 1.798E-05 3.667E-11 1.628E-02 3.270E-03 1.957E-02 1.957E-02 
4.000E+04 2.978E-14 1.381E-05 2.750E-11 1.629E-02 3.277E-03 1.958E-02 1.958E-02 
5.000E+04 1.905E-14 1.124E-05 2.200E-11 1.630E-02 3.281E-03 1.959E-02 1.959E-02 
6.000E+04 1.323E-14 9.503E-06 1.833E-11 1.631E-02 3.284E-03 1.960E-02 1.960E-02 
8.000E+04 7.445E-15 7.288E-06 1.375E-11 1.631E-02 3.286E-03 1.961E-02 1.961E-02 
1.000E+05 4.765E-15 5.927E-06 1.100E-11 1.632E-02 3.289E-03 1.961E-02 1.961E-02 