Photon    Coherent Incoher. Photoel. Nuclear  Electron Tot. w/  Tot. wo/ 
Energy    Scatter. Scatter. Absorb.  Pr. Prd. Pr. Prd. Coherent Coherent 

1.000E-03 1.302E+00 1.366E-02 3.571E+03 0.000E+00 0.000E+00 3.572E+03 3.571E+03 
1.000E-03 1.302E+00 1.366E-02 3.571E+03 0.000E+00 0.000E+00 3.572E+03 3.571E+03 
1.072E-03 1.287E+00 1.545E-02 2.963E+03 0.000E+00 0.000E+00 2.965E+03 2.963E+03 
1.072E-03 1.287E+00 1.545E-02 2.975E+03 0.000E+00 0.000E+00 2.977E+03 2.975E+03 
1.500E-03 1.195E+00 2.749E-02 1.199E+03 0.000E+00 0.000E+00 1.201E+03 1.199E+03 
2.000E-03 1.074E+00 4.276E-02 5.351E+02 0.000E+00 0.000E+00 5.363E+02 5.352E+02 
2.145E-03 1.038E+00 4.720E-02 4.380E+02 0.000E+00 0.000E+00 4.390E+02 4.380E+02 
2.145E-03 1.038E+00 4.720E-02 4.402E+02 0.000E+00 0.000E+00 4.413E+02 4.402E+02 
2.303E-03 9.991E-01 5.194E-02 3.593E+02 0.000E+00 0.000E+00 3.604E+02 3.594E+02 
2.472E-03 9.583E-01 5.694E-02 2.930E+02 0.000E+00 0.000E+00 2.940E+02 2.930E+02 
2.472E-03 9.583E-01 5.694E-02 2.967E+02 0.000E+00 0.000E+00 2.977E+02 2.967E+02 
2.641E-03 9.186E-01 6.182E-02 2.450E+02 0.000E+00 0.000E+00 2.460E+02 2.451E+02 
2.822E-03 8.774E-01 6.686E-02 2.021E+02 0.000E+00 0.000E+00 2.031E+02 2.022E+02 
2.822E-03 8.774E-01 6.686E-02 2.065E+02 0.000E+00 0.000E+00 2.075E+02 2.066E+02 
3.000E-03 8.385E-01 7.163E-02 1.731E+02 0.000E+00 0.000E+00 1.741E+02 1.732E+02 
3.607E-03 7.176E-01 8.646E-02 1.008E+02 0.000E+00 0.000E+00 1.016E+02 1.009E+02 
3.607E-03 7.176E-01 8.646E-02 1.019E+02 0.000E+00 0.000E+00 1.027E+02 1.019E+02 
4.000E-03 6.499E-01 9.483E-02 7.496E+01 0.000E+00 0.000E+00 7.570E+01 7.505E+01 
5.000E-03 5.117E-01 1.123E-01 3.845E+01 0.000E+00 0.000E+00 3.907E+01 3.856E+01 
6.000E-03 4.128E-01 1.253E-01 2.213E+01 0.000E+00 0.000E+00 2.267E+01 2.226E+01 
7.000E-03 3.410E-01 1.351E-01 1.381E+01 0.000E+00 0.000E+00 1.429E+01 1.395E+01 
8.000E-03 2.877E-01 1.426E-01 9.157E+00 0.000E+00 0.000E+00 9.587E+00 9.300E+00 
9.000E-03 2.471E-01 1.486E-01 6.358E+00 0.000E+00 0.000E+00 6.753E+00 6.506E+00 
1.000E-02 2.155E-01 1.534E-01 4.579E+00 0.000E+00 0.000E+00 4.948E+00 4.732E+00 
1.100E-02 1.903E-01 1.574E-01 3.398E+00 0.000E+00 0.000E+00 3.745E+00 3.555E+00 
1.300E-02 1.525E-01 1.637E-01 2.008E+00 0.000E+00 0.000E+00 2.324E+00 2.171E+00 
1.500E-02 1.256E-01 1.684E-01 1.276E+00 0.000E+00 0.000E+00 1.570E+00 1.444E+00 
1.700E-02 1.055E-01 1.720E-01 8.562E-01 0.000E+00 0.000E+00 1.134E+00 1.028E+00 
1.900E-02 8.995E-02 1.748E-01 5.999E-01 0.000E+00 0.000E+00 8.646E-01 7.747E-01 
2.000E-02 8.341E-02 1.759E-01 5.089E-01 0.000E+00 0.000E+00 7.682E-01 6.848E-01 
2.100E-02 7.754E-02 1.769E-01 4.350E-01 0.000E+00 0.000E+00 6.895E-01 6.120E-01 
2.300E-02 6.748E-02 1.786E-01 3.245E-01 0.000E+00 0.000E+00 5.705E-01 5.031E-01 
2.500E-02 5.922E-02 1.797E-01 2.479E-01 0.000E+00 0.000E+00 4.868E-01 4.276E-01 
2.700E-02 5.236E-02 1.806E-01 1.932E-01 0.000E+00 0.000E+00 4.261E-01 3.738E-01 
2.900E-02 4.659E-02 1.812E-01 1.532E-01 0.000E+00 0.000E+00 3.810E-01 3.344E-01 
3.000E-02 4.406E-02 1.814E-01 1.372E-01 0.000E+00 0.000E+00 3.626E-01 3.186E-01 
3.100E-02 4.172E-02 1.815E-01 1.233E-01 0.000E+00 0.000E+00 3.466E-01 3.048E-01 
3.300E-02 3.755E-02 1.817E-01 1.006E-01 0.000E+00 0.000E+00 3.198E-01 2.823E-01 
3.500E-02 3.397E-02 1.816E-01 8.306E-02 0.000E+00 0.000E+00 2.987E-01 2.647E-01 
3.700E-02 3.088E-02 1.815E-01 6.928E-02 0.000E+00 0.000E+00 2.817E-01 2.508E-01 
3.900E-02 2.818E-02 1.813E-01 5.834E-02 0.000E+00 0.000E+00 2.678E-01 2.396E-01 
4.000E-02 2.696E-02 1.811E-01 5.370E-02 0.000E+00 0.000E+00 2.618E-01 2.348E-01 
4.100E-02 2.582E-02 1.809E-01 4.953E-02 0.000E+00 0.000E+00 2.563E-01 2.304E-01 
4.300E-02 2.375E-02 1.805E-01 4.238E-02 0.000E+00 0.000E+00 2.466E-01 2.229E-01 
4.500E-02 2.191E-02 1.800E-01 3.652E-02 0.000E+00 0.000E+00 2.384E-01 2.165E-01 
4.700E-02 2.028E-02 1.795E-01 3.167E-02 0.000E+00 0.000E+00 2.314E-01 2.111E-01 
4.900E-02 1.883E-02 1.789E-01 2.762E-02 0.000E+00 0.000E+00 2.254E-01 2.065E-01 
5.000E-02 1.816E-02 1.786E-01 2.585E-02 0.000E+00 0.000E+00 2.226E-01 2.045E-01 
5.100E-02 1.752E-02 1.783E-01 2.422E-02 0.000E+00 0.000E+00 2.200E-01 2.025E-01 
5.300E-02 1.635E-02 1.777E-01 2.135E-02 0.000E+00 0.000E+00 2.154E-01 1.990E-01 
5.500E-02 1.529E-02 1.770E-01 1.890E-02 0.000E+00 0.000E+00 2.112E-01 1.959E-01 
5.700E-02 1.433E-02 1.763E-01 1.680E-02 0.000E+00 0.000E+00 2.075E-01 1.931E-01 
5.900E-02 1.346E-02 1.756E-01 1.500E-02 0.000E+00 0.000E+00 2.041E-01 1.906E-01 
6.000E-02 1.305E-02 1.753E-01 1.420E-02 0.000E+00 0.000E+00 2.025E-01 1.895E-01 
6.100E-02 1.266E-02 1.749E-01 1.344E-02 0.000E+00 0.000E+00 2.010E-01 1.884E-01 
6.300E-02 1.193E-02 1.742E-01 1.209E-02 0.000E+00 0.000E+00 1.982E-01 1.863E-01 
6.500E-02 1.126E-02 1.735E-01 1.091E-02 0.000E+00 0.000E+00 1.957E-01 1.844E-01 
6.700E-02 1.065E-02 1.728E-01 9.874E-03 0.000E+00 0.000E+00 1.933E-01 1.826E-01 
6.900E-02 1.009E-02 1.720E-01 8.963E-03 0.000E+00 0.000E+00 1.911E-01 1.810E-01 
7.100E-02 9.563E-03 1.713E-01 8.159E-03 0.000E+00 0.000E+00 1.890E-01 1.794E-01 
7.300E-02 9.081E-03 1.706E-01 7.446E-03 0.000E+00 0.000E+00 1.871E-01 1.780E-01 
7.500E-02 8.634E-03 1.698E-01 6.812E-03 0.000E+00 0.000E+00 1.853E-01 1.766E-01 
7.700E-02 8.218E-03 1.691E-01 6.247E-03 0.000E+00 0.000E+00 1.835E-01 1.753E-01 
7.900E-02 7.832E-03 1.684E-01 5.741E-03 0.000E+00 0.000E+00 1.819E-01 1.741E-01 
8.000E-02 7.649E-03 1.680E-01 5.509E-03 0.000E+00 0.000E+00 1.811E-01 1.735E-01 
8.100E-02 7.472E-03 1.676E-01 5.288E-03 0.000E+00 0.000E+00 1.804E-01 1.729E-01 
8.300E-02 7.136E-03 1.669E-01 4.880E-03 0.000E+00 0.000E+00 1.789E-01 1.718E-01 
8.500E-02 6.823E-03 1.662E-01 4.513E-03 0.000E+00 0.000E+00 1.775E-01 1.707E-01 
8.700E-02 6.529E-03 1.655E-01 4.180E-03 0.000E+00 0.000E+00 1.762E-01 1.696E-01 
8.900E-02 6.253E-03 1.647E-01 3.879E-03 0.000E+00 0.000E+00 1.749E-01 1.686E-01 
9.100E-02 5.995E-03 1.640E-01 3.606E-03 0.000E+00 0.000E+00 1.736E-01 1.676E-01 
9.300E-02 5.752E-03 1.633E-01 3.357E-03 0.000E+00 0.000E+00 1.724E-01 1.667E-01 
9.500E-02 5.524E-03 1.626E-01 3.130E-03 0.000E+00 0.000E+00 1.713E-01 1.658E-01 
9.700E-02 5.308E-03 1.619E-01 2.923E-03 0.000E+00 0.000E+00 1.702E-01 1.649E-01 
9.900E-02 5.105E-03 1.613E-01 2.734E-03 0.000E+00 0.000E+00 1.691E-01 1.640E-01 
1.000E-01 5.008E-03 1.609E-01 2.645E-03 0.000E+00 0.000E+00 1.686E-01 1.636E-01 
1.010E-01 4.914E-03 1.606E-01 2.560E-03 0.000E+00 0.000E+00 1.680E-01 1.631E-01 
1.030E-01 4.733E-03 1.599E-01 2.400E-03 0.000E+00 0.000E+00 1.670E-01 1.623E-01 
1.050E-01 4.561E-03 1.592E-01 2.253E-03 0.000E+00 0.000E+00 1.660E-01 1.615E-01 
1.070E-01 4.399E-03 1.586E-01 2.118E-03 0.000E+00 0.000E+00 1.651E-01 1.607E-01 
1.090E-01 4.245E-03 1.579E-01 1.993E-03 0.000E+00 0.000E+00 1.641E-01 1.599E-01 
1.110E-01 4.099E-03 1.573E-01 1.878E-03 0.000E+00 0.000E+00 1.632E-01 1.591E-01 
1.130E-01 3.960E-03 1.566E-01 1.771E-03 0.000E+00 0.000E+00 1.623E-01 1.584E-01 
1.150E-01 3.829E-03 1.560E-01 1.672E-03 0.000E+00 0.000E+00 1.615E-01 1.577E-01 
1.170E-01 3.703E-03 1.553E-01 1.580E-03 0.000E+00 0.000E+00 1.606E-01 1.569E-01 
1.190E-01 3.584E-03 1.547E-01 1.495E-03 0.000E+00 0.000E+00 1.598E-01 1.562E-01 
1.210E-01 3.470E-03 1.541E-01 1.416E-03 0.000E+00 0.000E+00 1.590E-01 1.555E-01 
1.230E-01 3.362E-03 1.535E-01 1.342E-03 0.000E+00 0.000E+00 1.582E-01 1.548E-01 
1.250E-01 3.258E-03 1.529E-01 1.273E-03 0.000E+00 0.000E+00 1.574E-01 1.542E-01 
1.270E-01 3.160E-03 1.523E-01 1.209E-03 0.000E+00 0.000E+00 1.566E-01 1.535E-01 
1.290E-01 3.065E-03 1.517E-01 1.149E-03 0.000E+00 0.000E+00 1.559E-01 1.528E-01 
1.310E-01 2.975E-03 1.511E-01 1.092E-03 0.000E+00 0.000E+00 1.552E-01 1.522E-01 
1.330E-01 2.889E-03 1.505E-01 1.040E-03 0.000E+00 0.000E+00 1.544E-01 1.515E-01 
1.350E-01 2.806E-03 1.499E-01 9.903E-04 0.000E+00 0.000E+00 1.537E-01 1.509E-01 
1.370E-01 2.727E-03 1.494E-01 9.440E-04 0.000E+00 0.000E+00 1.530E-01 1.503E-01 
1.390E-01 2.651E-03 1.488E-01 9.005E-04 0.000E+00 0.000E+00 1.523E-01 1.497E-01 
1.410E-01 2.578E-03 1.482E-01 8.596E-04 0.000E+00 0.000E+00 1.517E-01 1.491E-01 
1.430E-01 2.508E-03 1.477E-01 8.211E-04 0.000E+00 0.000E+00 1.510E-01 1.485E-01 
1.450E-01 2.441E-03 1.471E-01 7.848E-04 0.000E+00 0.000E+00 1.503E-01 1.479E-01 
1.470E-01 2.377E-03 1.466E-01 7.507E-04 0.000E+00 0.000E+00 1.497E-01 1.473E-01 
1.490E-01 2.315E-03 1.460E-01 7.185E-04 0.000E+00 0.000E+00 1.491E-01 1.468E-01 
1.500E-01 2.285E-03 1.458E-01 7.030E-04 0.000E+00 0.000E+00 1.488E-01 1.465E-01 
1.510E-01 2.255E-03 1.455E-01 6.880E-04 0.000E+00 0.000E+00 1.484E-01 1.462E-01 
1.530E-01 2.198E-03 1.450E-01 6.593E-04 0.000E+00 0.000E+00 1.478E-01 1.456E-01 
1.550E-01 2.143E-03 1.444E-01 6.321E-04 0.000E+00 0.000E+00 1.472E-01 1.451E-01 
1.570E-01 2.089E-03 1.439E-01 6.064E-04 0.000E+00 0.000E+00 1.466E-01 1.445E-01 
1.590E-01 2.038E-03 1.434E-01 5.821E-04 0.000E+00 0.000E+00 1.460E-01 1.440E-01 
1.610E-01 1.989E-03 1.429E-01 5.590E-04 0.000E+00 0.000E+00 1.455E-01 1.435E-01 
1.630E-01 1.941E-03 1.424E-01 5.371E-04 0.000E+00 0.000E+00 1.449E-01 1.429E-01 
1.650E-01 1.895E-03 1.419E-01 5.164E-04 0.000E+00 0.000E+00 1.443E-01 1.424E-01 
1.670E-01 1.851E-03 1.414E-01 4.967E-04 0.000E+00 0.000E+00 1.438E-01 1.419E-01 
1.690E-01 1.808E-03 1.409E-01 4.780E-04 0.000E+00 0.000E+00 1.432E-01 1.414E-01 
1.710E-01 1.767E-03 1.404E-01 4.602E-04 0.000E+00 0.000E+00 1.427E-01 1.409E-01 
1.730E-01 1.727E-03 1.399E-01 4.433E-04 0.000E+00 0.000E+00 1.421E-01 1.404E-01 
1.750E-01 1.689E-03 1.395E-01 4.272E-04 0.000E+00 0.000E+00 1.416E-01 1.399E-01 
1.770E-01 1.651E-03 1.390E-01 4.118E-04 0.000E+00 0.000E+00 1.411E-01 1.394E-01 
1.790E-01 1.615E-03 1.385E-01 3.972E-04 0.000E+00 0.000E+00 1.405E-01 1.389E-01 
1.810E-01 1.580E-03 1.381E-01 3.833E-04 0.000E+00 0.000E+00 1.400E-01 1.385E-01 
1.830E-01 1.546E-03 1.376E-01 3.700E-04 0.000E+00 0.000E+00 1.395E-01 1.380E-01 
1.850E-01 1.514E-03 1.372E-01 3.574E-04 0.000E+00 0.000E+00 1.390E-01 1.375E-01 
1.870E-01 1.482E-03 1.367E-01 3.453E-04 0.000E+00 0.000E+00 1.385E-01 1.371E-01 
1.890E-01 1.451E-03 1.363E-01 3.337E-04 0.000E+00 0.000E+00 1.380E-01 1.366E-01 
1.910E-01 1.421E-03 1.358E-01 3.227E-04 0.000E+00 0.000E+00 1.376E-01 1.361E-01 
1.930E-01 1.392E-03 1.354E-01 3.121E-04 0.000E+00 0.000E+00 1.371E-01 1.357E-01 
1.950E-01 1.364E-03 1.349E-01 3.020E-04 0.000E+00 0.000E+00 1.366E-01 1.352E-01 
1.970E-01 1.337E-03 1.345E-01 2.924E-04 0.000E+00 0.000E+00 1.361E-01 1.348E-01 
1.990E-01 1.311E-03 1.341E-01 2.831E-04 0.000E+00 0.000E+00 1.357E-01 1.344E-01 
2.000E-01 1.298E-03 1.339E-01 2.786E-04 0.000E+00 0.000E+00 1.355E-01 1.342E-01 
3.000E-01 5.813E-04 1.167E-01 7.898E-05 0.000E+00 0.000E+00 1.173E-01 1.167E-01 
4.000E-01 3.279E-04 1.046E-01 3.388E-05 0.000E+00 0.000E+00 1.050E-01 1.046E-01 
5.000E-01 2.101E-04 9.557E-02 1.828E-05 0.000E+00 0.000E+00 9.580E-02 9.559E-02 
6.000E-01 1.460E-04 8.842E-02 1.139E-05 0.000E+00 0.000E+00 8.857E-02 8.843E-02 
8.000E-01 8.221E-05 7.770E-02 5.754E-06 0.000E+00 0.000E+00 7.779E-02 7.770E-02 
1.000E+00 5.262E-05 6.988E-02 3.577E-06 0.000E+00 0.000E+00 6.994E-02 6.988E-02 
1.022E+00 5.039E-05 6.914E-02 3.338E-06 0.000E+00 0.000E+00 6.920E-02 6.915E-02 
1.250E+00 3.370E-05 6.248E-02 2.265E-06 1.698E-05 0.000E+00 6.254E-02 6.250E-02 
1.500E+00 2.340E-05 5.679E-02 1.643E-06 9.391E-05 0.000E+00 5.691E-02 5.688E-02 
2.000E+00 1.316E-05 4.847E-02 1.032E-06 3.738E-04 0.000E+00 4.886E-02 4.884E-02 
2.044E+00 1.260E-05 4.786E-02 9.982E-07 4.028E-04 0.000E+00 4.828E-02 4.826E-02 
3.000E+00 5.850E-06 3.813E-02 5.754E-07 1.069E-03 1.334E-05 3.921E-02 3.921E-02 
4.000E+00 3.291E-06 3.180E-02 3.945E-07 1.733E-03 5.446E-05 3.360E-02 3.359E-02 
5.000E+00 2.106E-06 2.747E-02 2.989E-07 2.326E-03 1.085E-04 2.990E-02 2.990E-02 
6.000E+00 1.463E-06 2.428E-02 2.401E-07 2.858E-03 1.667E-04 2.730E-02 2.730E-02 
7.000E+00 1.075E-06 2.182E-02 2.005E-07 3.332E-03 2.247E-04 2.538E-02 2.538E-02 
8.000E+00 8.227E-07 1.986E-02 1.720E-07 3.758E-03 2.811E-04 2.390E-02 2.390E-02 
9.000E+00 6.501E-07 1.825E-02 1.505E-07 4.147E-03 3.352E-04 2.274E-02 2.274E-02 
1.000E+01 5.266E-07 1.691E-02 1.338E-07 4.498E-03 3.867E-04 2.180E-02 2.180E-02 
1.100E+01 4.351E-07 1.577E-02 1.204E-07 4.818E-03 4.356E-04 2.103E-02 2.103E-02 
1.200E+01 3.656E-07 1.479E-02 1.094E-07 5.112E-03 4.819E-04 2.039E-02 2.039E-02 
1.300E+01 3.116E-07 1.394E-02 1.003E-07 5.386E-03 5.256E-04 1.985E-02 1.985E-02 
1.400E+01 2.686E-07 1.318E-02 9.254E-08 5.640E-03 5.674E-04 1.939E-02 1.939E-02 
1.500E+01 2.340E-07 1.252E-02 8.592E-08 5.878E-03 6.068E-04 1.900E-02 1.900E-02 
1.600E+01 2.057E-07 1.192E-02 8.017E-08 6.103E-03 6.447E-04 1.867E-02 1.867E-02 
1.800E+01 1.625E-07 1.089E-02 7.071E-08 6.512E-03 7.151E-04 1.812E-02 1.812E-02 
2.000E+01 1.316E-07 1.005E-02 6.322E-08 6.879E-03 7.793E-04 1.770E-02 1.770E-02 
2.200E+01 1.088E-07 9.332E-03 5.718E-08 7.214E-03 8.388E-04 1.739E-02 1.739E-02 
2.400E+01 9.142E-08 8.720E-03 5.218E-08 7.518E-03 8.936E-04 1.713E-02 1.713E-02 
2.600E+01 7.790E-08 8.187E-03 4.799E-08 7.796E-03 9.445E-04 1.693E-02 1.693E-02 
2.800E+01 6.715E-08 7.724E-03 4.441E-08 8.054E-03 9.922E-04 1.677E-02 1.677E-02 
3.000E+01 5.851E-08 7.314E-03 4.135E-08 8.292E-03 1.037E-03 1.664E-02 1.664E-02 
4.000E+01 3.291E-08 5.811E-03 3.071E-08 9.265E-03 1.224E-03 1.630E-02 1.630E-02 
5.000E+01 2.106E-08 4.852E-03 2.442E-08 1.001E-02 1.370E-03 1.623E-02 1.623E-02 
6.000E+01 1.463E-08 4.179E-03 2.027E-08 1.059E-02 1.489E-03 1.626E-02 1.626E-02 
8.000E+01 8.227E-09 3.297E-03 1.513E-08 1.148E-02 1.675E-03 1.645E-02 1.645E-02 
1.000E+02 5.266E-09 2.736E-03 1.207E-08 1.213E-02 1.815E-03 1.668E-02 1.668E-02 
1.500E+02 2.340E-09 1.949E-03 8.013E-09 1.322E-02 2.059E-03 1.722E-02 1.722E-02 
2.000E+02 1.316E-09 1.528E-03 5.999E-09 1.389E-02 2.220E-03 1.764E-02 1.764E-02 
3.000E+02 5.850E-10 1.083E-03 3.990E-09 1.470E-02 2.428E-03 1.821E-02 1.821E-02 
4.000E+02 3.291E-10 8.480E-04 2.991E-09 1.517E-02 2.558E-03 1.858E-02 1.858E-02 
5.000E+02 2.106E-10 7.020E-04 2.391E-09 1.549E-02 2.649E-03 1.884E-02 1.884E-02 
6.000E+02 1.462E-10 6.012E-04 1.992E-09 1.572E-02 2.716E-03 1.903E-02 1.903E-02 
8.000E+02 8.227E-11 4.695E-04 1.493E-09 1.602E-02 2.811E-03 1.930E-02 1.930E-02 
1.000E+03 5.266E-11 3.862E-04 1.194E-09 1.622E-02 2.875E-03 1.949E-02 1.949E-02 
1.500E+03 2.340E-11 2.697E-04 7.957E-10 1.652E-02 2.972E-03 1.976E-02 1.976E-02 
2.000E+03 1.316E-11 2.088E-04 5.967E-10 1.668E-02 3.027E-03 1.992E-02 1.992E-02 
3.000E+03 5.850E-12 1.451E-04 3.977E-10 1.686E-02 3.088E-03 2.009E-02 2.009E-02 
4.000E+03 3.291E-12 1.120E-04 2.982E-10 1.695E-02 3.123E-03 2.018E-02 2.018E-02 
5.000E+03 2.106E-12 9.162E-05 2.386E-10 1.701E-02 3.146E-03 2.025E-02 2.025E-02 
6.000E+03 1.462E-12 7.769E-05 1.988E-10 1.705E-02 3.161E-03 2.029E-02 2.029E-02 
8.000E+03 8.227E-13 5.984E-05 1.491E-10 1.710E-02 3.182E-03 2.035E-02 2.035E-02 
1.000E+04 5.266E-13 4.885E-05 1.193E-10 1.714E-02 3.195E-03 2.038E-02 2.038E-02 
1.500E+04 2.340E-13 3.377E-05 7.951E-11 1.719E-02 3.213E-03 2.043E-02 2.043E-02 
2.000E+04 1.316E-13 2.596E-05 5.964E-11 1.721E-02 3.223E-03 2.046E-02 2.046E-02 
3.000E+04 5.850E-14 1.791E-05 3.976E-11 1.724E-02 3.234E-03 2.049E-02 2.049E-02 
4.000E+04 3.291E-14 1.375E-05 2.982E-11 1.726E-02 3.240E-03 2.051E-02 2.051E-02 
5.000E+04 2.106E-14 1.120E-05 2.385E-11 1.726E-02 3.244E-03 2.052E-02 2.052E-02 
6.000E+04 1.462E-14 9.463E-06 1.988E-11 1.727E-02 3.247E-03 2.053E-02 2.053E-02 
8.000E+04 8.227E-15 7.257E-06 1.491E-11 1.728E-02 3.249E-03 2.053E-02 2.053E-02 
1.000E+05 5.266E-15 5.901E-06 1.193E-11 1.728E-02 3.251E-03 2.054E-02 2.054E-02 