Photon    Coherent Incoher. Photoel. Nuclear  Electron Tot. w/  Tot. wo/ 
Energy    Scatter. Scatter. Absorb.  Pr. Prd. Pr. Prd. Coherent Coherent 

1.000E-03 1.289E+00 1.392E-02 3.510E+03 0.000E+00 0.000E+00 3.511E+03 3.510E+03 
1.020E-03 1.285E+00 1.441E-02 3.331E+03 0.000E+00 0.000E+00 3.332E+03 3.331E+03 
1.020E-03 1.285E+00 1.441E-02 3.331E+03 0.000E+00 0.000E+00 3.332E+03 3.331E+03 
1.031E-03 1.282E+00 1.470E-02 3.233E+03 0.000E+00 0.000E+00 3.234E+03 3.233E+03 
1.043E-03 1.279E+00 1.499E-02 3.137E+03 0.000E+00 0.000E+00 3.138E+03 3.137E+03 
1.043E-03 1.279E+00 1.499E-02 3.137E+03 0.000E+00 0.000E+00 3.138E+03 3.137E+03 
1.057E-03 1.276E+00 1.536E-02 3.023E+03 0.000E+00 0.000E+00 3.024E+03 3.023E+03 
1.072E-03 1.273E+00 1.574E-02 2.913E+03 0.000E+00 0.000E+00 2.914E+03 2.913E+03 
1.072E-03 1.273E+00 1.574E-02 2.919E+03 0.000E+00 0.000E+00 2.921E+03 2.919E+03 
1.131E-03 1.261E+00 1.730E-02 2.528E+03 0.000E+00 0.000E+00 2.529E+03 2.528E+03 
1.194E-03 1.248E+00 1.900E-02 2.189E+03 0.000E+00 0.000E+00 2.190E+03 2.189E+03 
1.194E-03 1.248E+00 1.900E-02 2.189E+03 0.000E+00 0.000E+00 2.190E+03 2.189E+03 
1.248E-03 1.237E+00 2.053E-02 1.941E+03 0.000E+00 0.000E+00 1.942E+03 1.941E+03 
1.305E-03 1.225E+00 2.217E-02 1.720E+03 0.000E+00 0.000E+00 1.721E+03 1.720E+03 
1.305E-03 1.225E+00 2.217E-02 1.721E+03 0.000E+00 0.000E+00 1.722E+03 1.721E+03 
1.500E-03 1.182E+00 2.798E-02 1.176E+03 0.000E+00 0.000E+00 1.177E+03 1.176E+03 
2.000E-03 1.061E+00 4.347E-02 5.245E+02 0.000E+00 0.000E+00 5.256E+02 5.246E+02 
2.145E-03 1.025E+00 4.797E-02 4.292E+02 0.000E+00 0.000E+00 4.303E+02 4.293E+02 
2.145E-03 1.025E+00 4.797E-02 4.322E+02 0.000E+00 0.000E+00 4.333E+02 4.322E+02 
2.303E-03 9.866E-01 5.277E-02 3.528E+02 0.000E+00 0.000E+00 3.538E+02 3.528E+02 
2.472E-03 9.462E-01 5.782E-02 2.876E+02 0.000E+00 0.000E+00 2.886E+02 2.877E+02 
2.472E-03 9.462E-01 5.782E-02 2.913E+02 0.000E+00 0.000E+00 2.923E+02 2.914E+02 
2.641E-03 9.067E-01 6.275E-02 2.406E+02 0.000E+00 0.000E+00 2.416E+02 2.407E+02 
2.822E-03 8.659E-01 6.784E-02 1.985E+02 0.000E+00 0.000E+00 1.994E+02 1.986E+02 
2.822E-03 8.659E-01 6.784E-02 2.004E+02 0.000E+00 0.000E+00 2.014E+02 2.005E+02 
3.000E-03 8.273E-01 7.265E-02 1.679E+02 0.000E+00 0.000E+00 1.688E+02 1.680E+02 
3.607E-03 7.077E-01 8.758E-02 9.760E+01 0.000E+00 0.000E+00 9.840E+01 9.769E+01 
3.607E-03 7.077E-01 8.758E-02 9.973E+01 0.000E+00 0.000E+00 1.005E+02 9.982E+01 
4.000E-03 6.408E-01 9.600E-02 7.341E+01 0.000E+00 0.000E+00 7.415E+01 7.351E+01 
4.038E-03 6.348E-01 9.677E-02 7.137E+01 0.000E+00 0.000E+00 7.210E+01 7.147E+01 
4.038E-03 6.348E-01 9.677E-02 7.158E+01 0.000E+00 0.000E+00 7.231E+01 7.168E+01 
5.000E-03 5.045E-01 1.135E-01 3.778E+01 0.000E+00 0.000E+00 3.839E+01 3.789E+01 
6.000E-03 4.070E-01 1.265E-01 2.175E+01 0.000E+00 0.000E+00 2.228E+01 2.187E+01 
7.112E-03 3.296E-01 1.372E-01 1.293E+01 0.000E+00 0.000E+00 1.340E+01 1.307E+01 
7.112E-03 3.296E-01 1.372E-01 1.295E+01 0.000E+00 0.000E+00 1.342E+01 1.309E+01 
8.000E-03 2.838E-01 1.438E-01 9.017E+00 0.000E+00 0.000E+00 9.444E+00 9.160E+00 
9.659E-03 2.226E-01 1.530E-01 5.027E+00 0.000E+00 0.000E+00 5.403E+00 5.180E+00 
9.659E-03 2.226E-01 1.530E-01 5.034E+00 0.000E+00 0.000E+00 5.409E+00 5.187E+00 
1.000E-02 2.127E-01 1.545E-01 4.517E+00 0.000E+00 0.000E+00 4.884E+00 4.672E+00 
1.200E-02 1.676E-01 1.619E-01 2.551E+00 0.000E+00 0.000E+00 2.881E+00 2.713E+00 
1.400E-02 1.364E-01 1.673E-01 1.568E+00 0.000E+00 0.000E+00 1.872E+00 1.736E+00 
1.500E-02 1.241E-01 1.695E-01 1.260E+00 0.000E+00 0.000E+00 1.554E+00 1.430E+00 
1.600E-02 1.135E-01 1.714E-01 1.027E+00 0.000E+00 0.000E+00 1.311E+00 1.198E+00 
1.800E-02 9.609E-02 1.746E-01 7.051E-01 0.000E+00 0.000E+00 9.758E-01 8.797E-01 
2.000E-02 8.238E-02 1.770E-01 5.033E-01 0.000E+00 0.000E+00 7.626E-01 6.802E-01 
2.200E-02 7.136E-02 1.788E-01 3.705E-01 0.000E+00 0.000E+00 6.207E-01 5.493E-01 
2.400E-02 6.236E-02 1.802E-01 2.799E-01 0.000E+00 0.000E+00 5.225E-01 4.601E-01 
2.600E-02 5.493E-02 1.812E-01 2.161E-01 0.000E+00 0.000E+00 4.522E-01 3.973E-01 
2.800E-02 4.873E-02 1.819E-01 1.700E-01 0.000E+00 0.000E+00 4.006E-01 3.519E-01 
3.000E-02 4.350E-02 1.823E-01 1.359E-01 0.000E+00 0.000E+00 3.617E-01 3.182E-01 
3.200E-02 3.905E-02 1.825E-01 1.102E-01 0.000E+00 0.000E+00 3.318E-01 2.927E-01 
3.400E-02 3.524E-02 1.826E-01 9.047E-02 0.000E+00 0.000E+00 3.083E-01 2.731E-01 
3.600E-02 3.195E-02 1.825E-01 7.510E-02 0.000E+00 0.000E+00 2.895E-01 2.576E-01 
3.800E-02 2.910E-02 1.823E-01 6.296E-02 0.000E+00 0.000E+00 2.743E-01 2.452E-01 
4.000E-02 2.662E-02 1.820E-01 5.325E-02 0.000E+00 0.000E+00 2.618E-01 2.352E-01 
4.200E-02 2.444E-02 1.816E-01 4.540E-02 0.000E+00 0.000E+00 2.514E-01 2.270E-01 
4.400E-02 2.251E-02 1.811E-01 3.899E-02 0.000E+00 0.000E+00 2.426E-01 2.201E-01 
4.600E-02 2.080E-02 1.806E-01 3.371E-02 0.000E+00 0.000E+00 2.351E-01 2.143E-01 
4.800E-02 1.928E-02 1.800E-01 2.932E-02 0.000E+00 0.000E+00 2.286E-01 2.094E-01 
5.000E-02 1.792E-02 1.794E-01 2.565E-02 0.000E+00 0.000E+00 2.230E-01 2.051E-01 
5.200E-02 1.670E-02 1.788E-01 2.255E-02 0.000E+00 0.000E+00 2.181E-01 2.014E-01 
5.400E-02 1.560E-02 1.781E-01 1.993E-02 0.000E+00 0.000E+00 2.137E-01 1.981E-01 
5.600E-02 1.461E-02 1.775E-01 1.768E-02 0.000E+00 0.000E+00 2.098E-01 1.951E-01 
5.800E-02 1.370E-02 1.768E-01 1.576E-02 0.000E+00 0.000E+00 2.062E-01 1.925E-01 
6.000E-02 1.288E-02 1.761E-01 1.410E-02 0.000E+00 0.000E+00 2.030E-01 1.902E-01 
6.200E-02 1.213E-02 1.753E-01 1.266E-02 0.000E+00 0.000E+00 2.001E-01 1.880E-01 
6.400E-02 1.144E-02 1.746E-01 1.140E-02 0.000E+00 0.000E+00 1.975E-01 1.860E-01 
6.600E-02 1.081E-02 1.739E-01 1.031E-02 0.000E+00 0.000E+00 1.950E-01 1.842E-01 
6.800E-02 1.023E-02 1.731E-01 9.343E-03 0.000E+00 0.000E+00 1.927E-01 1.825E-01 
7.000E-02 9.691E-03 1.724E-01 8.494E-03 0.000E+00 0.000E+00 1.906E-01 1.809E-01 
7.200E-02 9.196E-03 1.717E-01 7.743E-03 0.000E+00 0.000E+00 1.886E-01 1.794E-01 
7.400E-02 8.738E-03 1.709E-01 7.076E-03 0.000E+00 0.000E+00 1.867E-01 1.780E-01 
7.600E-02 8.312E-03 1.702E-01 6.482E-03 0.000E+00 0.000E+00 1.850E-01 1.767E-01 
7.800E-02 7.917E-03 1.694E-01 5.951E-03 0.000E+00 0.000E+00 1.833E-01 1.754E-01 
8.000E-02 7.549E-03 1.687E-01 5.476E-03 0.000E+00 0.000E+00 1.817E-01 1.742E-01 
8.200E-02 7.206E-03 1.680E-01 5.049E-03 0.000E+00 0.000E+00 1.802E-01 1.730E-01 
8.400E-02 6.886E-03 1.672E-01 4.665E-03 0.000E+00 0.000E+00 1.788E-01 1.719E-01 
8.600E-02 6.586E-03 1.665E-01 4.318E-03 0.000E+00 0.000E+00 1.774E-01 1.708E-01 
8.800E-02 6.305E-03 1.658E-01 4.004E-03 0.000E+00 0.000E+00 1.761E-01 1.698E-01 
9.000E-02 6.042E-03 1.651E-01 3.719E-03 0.000E+00 0.000E+00 1.748E-01 1.688E-01 
9.200E-02 5.795E-03 1.644E-01 3.460E-03 0.000E+00 0.000E+00 1.736E-01 1.678E-01 
9.400E-02 5.562E-03 1.637E-01 3.224E-03 0.000E+00 0.000E+00 1.725E-01 1.669E-01 
9.600E-02 5.343E-03 1.630E-01 3.008E-03 0.000E+00 0.000E+00 1.713E-01 1.660E-01 
9.800E-02 5.137E-03 1.623E-01 2.812E-03 0.000E+00 0.000E+00 1.702E-01 1.651E-01 
1.000E-01 4.942E-03 1.616E-01 2.631E-03 0.000E+00 0.000E+00 1.692E-01 1.642E-01 
1.020E-01 4.758E-03 1.609E-01 2.466E-03 0.000E+00 0.000E+00 1.681E-01 1.634E-01 
1.040E-01 4.585E-03 1.602E-01 2.314E-03 0.000E+00 0.000E+00 1.671E-01 1.626E-01 
1.060E-01 4.420E-03 1.596E-01 2.174E-03 0.000E+00 0.000E+00 1.662E-01 1.617E-01 
1.080E-01 4.264E-03 1.589E-01 2.044E-03 0.000E+00 0.000E+00 1.652E-01 1.609E-01 
1.100E-01 4.116E-03 1.582E-01 1.925E-03 0.000E+00 0.000E+00 1.643E-01 1.602E-01 
1.120E-01 3.976E-03 1.576E-01 1.815E-03 0.000E+00 0.000E+00 1.634E-01 1.594E-01 
1.140E-01 3.842E-03 1.570E-01 1.713E-03 0.000E+00 0.000E+00 1.625E-01 1.587E-01 
1.160E-01 3.715E-03 1.563E-01 1.618E-03 0.000E+00 0.000E+00 1.616E-01 1.579E-01 
1.180E-01 3.595E-03 1.557E-01 1.530E-03 0.000E+00 0.000E+00 1.608E-01 1.572E-01 
1.200E-01 3.480E-03 1.551E-01 1.448E-03 0.000E+00 0.000E+00 1.600E-01 1.565E-01 
1.220E-01 3.370E-03 1.544E-01 1.372E-03 0.000E+00 0.000E+00 1.592E-01 1.558E-01 
1.240E-01 3.266E-03 1.538E-01 1.301E-03 0.000E+00 0.000E+00 1.584E-01 1.551E-01 
1.260E-01 3.166E-03 1.532E-01 1.235E-03 0.000E+00 0.000E+00 1.576E-01 1.545E-01 
1.280E-01 3.071E-03 1.526E-01 1.173E-03 0.000E+00 0.000E+00 1.569E-01 1.538E-01 
1.300E-01 2.980E-03 1.520E-01 1.115E-03 0.000E+00 0.000E+00 1.561E-01 1.531E-01 
1.320E-01 2.893E-03 1.514E-01 1.061E-03 0.000E+00 0.000E+00 1.554E-01 1.525E-01 
1.340E-01 2.809E-03 1.508E-01 1.010E-03 0.000E+00 0.000E+00 1.547E-01 1.519E-01 
1.360E-01 2.729E-03 1.503E-01 9.629E-04 0.000E+00 0.000E+00 1.540E-01 1.512E-01 
1.380E-01 2.653E-03 1.497E-01 9.182E-04 0.000E+00 0.000E+00 1.533E-01 1.506E-01 
1.400E-01 2.579E-03 1.491E-01 8.762E-04 0.000E+00 0.000E+00 1.526E-01 1.500E-01 
1.420E-01 2.509E-03 1.486E-01 8.367E-04 0.000E+00 0.000E+00 1.519E-01 1.494E-01 
1.440E-01 2.442E-03 1.480E-01 7.996E-04 0.000E+00 0.000E+00 1.512E-01 1.488E-01 
1.460E-01 2.377E-03 1.475E-01 7.645E-04 0.000E+00 0.000E+00 1.506E-01 1.482E-01 
1.480E-01 2.314E-03 1.469E-01 7.315E-04 0.000E+00 0.000E+00 1.500E-01 1.476E-01 
1.500E-01 2.254E-03 1.464E-01 7.004E-04 0.000E+00 0.000E+00 1.493E-01 1.471E-01 
1.520E-01 2.197E-03 1.458E-01 6.709E-04 0.000E+00 0.000E+00 1.487E-01 1.465E-01 
1.540E-01 2.141E-03 1.453E-01 6.431E-04 0.000E+00 0.000E+00 1.481E-01 1.459E-01 
1.560E-01 2.088E-03 1.448E-01 6.168E-04 0.000E+00 0.000E+00 1.475E-01 1.454E-01 
1.580E-01 2.036E-03 1.443E-01 5.919E-04 0.000E+00 0.000E+00 1.469E-01 1.449E-01 
1.600E-01 1.987E-03 1.437E-01 5.683E-04 0.000E+00 0.000E+00 1.463E-01 1.443E-01 
1.620E-01 1.939E-03 1.432E-01 5.460E-04 0.000E+00 0.000E+00 1.457E-01 1.438E-01 
1.640E-01 1.893E-03 1.427E-01 5.248E-04 0.000E+00 0.000E+00 1.452E-01 1.433E-01 
1.660E-01 1.848E-03 1.422E-01 5.046E-04 0.000E+00 0.000E+00 1.446E-01 1.427E-01 
1.680E-01 1.805E-03 1.417E-01 4.855E-04 0.000E+00 0.000E+00 1.440E-01 1.422E-01 
1.700E-01 1.764E-03 1.413E-01 4.674E-04 0.000E+00 0.000E+00 1.435E-01 1.417E-01 
1.720E-01 1.724E-03 1.408E-01 4.501E-04 0.000E+00 0.000E+00 1.429E-01 1.412E-01 
1.740E-01 1.685E-03 1.403E-01 4.337E-04 0.000E+00 0.000E+00 1.424E-01 1.407E-01 
1.760E-01 1.648E-03 1.398E-01 4.180E-04 0.000E+00 0.000E+00 1.419E-01 1.402E-01 
1.780E-01 1.611E-03 1.393E-01 4.031E-04 0.000E+00 0.000E+00 1.414E-01 1.397E-01 
1.800E-01 1.576E-03 1.389E-01 3.889E-04 0.000E+00 0.000E+00 1.408E-01 1.393E-01 
1.820E-01 1.542E-03 1.384E-01 3.754E-04 0.000E+00 0.000E+00 1.403E-01 1.388E-01 
1.840E-01 1.510E-03 1.379E-01 3.625E-04 0.000E+00 0.000E+00 1.398E-01 1.383E-01 
1.860E-01 1.478E-03 1.375E-01 3.502E-04 0.000E+00 0.000E+00 1.393E-01 1.378E-01 
1.880E-01 1.447E-03 1.370E-01 3.384E-04 0.000E+00 0.000E+00 1.388E-01 1.374E-01 
1.900E-01 1.417E-03 1.366E-01 3.271E-04 0.000E+00 0.000E+00 1.383E-01 1.369E-01 
1.920E-01 1.388E-03 1.362E-01 3.164E-04 0.000E+00 0.000E+00 1.379E-01 1.365E-01 
1.940E-01 1.360E-03 1.357E-01 3.061E-04 0.000E+00 0.000E+00 1.374E-01 1.360E-01 
1.960E-01 1.333E-03 1.353E-01 2.962E-04 0.000E+00 0.000E+00 1.369E-01 1.356E-01 
1.980E-01 1.306E-03 1.349E-01 2.868E-04 0.000E+00 0.000E+00 1.364E-01 1.351E-01 
2.000E-01 1.281E-03 1.344E-01 2.778E-04 0.000E+00 0.000E+00 1.360E-01 1.347E-01 
2.020E-01 1.256E-03 1.340E-01 2.691E-04 0.000E+00 0.000E+00 1.355E-01 1.343E-01 
3.000E-01 5.736E-04 1.171E-01 7.883E-05 0.000E+00 0.000E+00 1.178E-01 1.172E-01 
4.000E-01 3.236E-04 1.050E-01 3.383E-05 0.000E+00 0.000E+00 1.054E-01 1.051E-01 
5.000E-01 2.074E-04 9.596E-02 1.827E-05 0.000E+00 0.000E+00 9.619E-02 9.598E-02 
6.000E-01 1.441E-04 8.878E-02 1.139E-05 0.000E+00 0.000E+00 8.893E-02 8.879E-02 
8.000E-01 8.112E-05 7.801E-02 5.751E-06 0.000E+00 0.000E+00 7.810E-02 7.802E-02 
1.000E+00 5.193E-05 7.016E-02 3.575E-06 0.000E+00 0.000E+00 7.022E-02 7.017E-02 
1.022E+00 4.972E-05 6.943E-02 3.337E-06 0.000E+00 0.000E+00 6.948E-02 6.943E-02 
1.250E+00 3.325E-05 6.274E-02 2.265E-06 1.682E-05 0.000E+00 6.279E-02 6.276E-02 
1.500E+00 2.309E-05 5.702E-02 1.642E-06 9.304E-05 0.000E+00 5.714E-02 5.711E-02 
2.000E+00 1.299E-05 4.867E-02 1.031E-06 3.703E-04 0.000E+00 4.905E-02 4.904E-02 
2.044E+00 1.243E-05 4.805E-02 9.973E-07 3.991E-04 0.000E+00 4.847E-02 4.845E-02 
3.000E+00 5.773E-06 3.828E-02 5.746E-07 1.059E-03 1.339E-05 3.936E-02 3.935E-02 
4.000E+00 3.248E-06 3.193E-02 3.938E-07 1.717E-03 5.468E-05 3.371E-02 3.371E-02 
5.000E+00 2.078E-06 2.758E-02 2.982E-07 2.304E-03 1.090E-04 2.999E-02 2.999E-02 
6.000E+00 1.443E-06 2.437E-02 2.396E-07 2.831E-03 1.673E-04 2.737E-02 2.737E-02 
7.000E+00 1.060E-06 2.191E-02 2.000E-07 3.301E-03 2.256E-04 2.544E-02 2.543E-02 
8.000E+00 8.118E-07 1.994E-02 1.716E-07 3.723E-03 2.823E-04 2.394E-02 2.394E-02 
9.000E+00 6.415E-07 1.833E-02 1.502E-07 4.109E-03 3.366E-04 2.277E-02 2.277E-02 
1.000E+01 5.196E-07 1.698E-02 1.335E-07 4.456E-03 3.883E-04 2.183E-02 2.183E-02 
1.100E+01 4.294E-07 1.584E-02 1.201E-07 4.773E-03 4.374E-04 2.105E-02 2.105E-02 
1.200E+01 3.608E-07 1.485E-02 1.091E-07 5.065E-03 4.838E-04 2.040E-02 2.040E-02 
1.300E+01 3.075E-07 1.399E-02 1.000E-07 5.336E-03 5.278E-04 1.986E-02 1.986E-02 
1.400E+01 2.651E-07 1.324E-02 9.229E-08 5.588E-03 5.697E-04 1.940E-02 1.940E-02 
1.500E+01 2.309E-07 1.257E-02 8.568E-08 5.824E-03 6.093E-04 1.900E-02 1.900E-02 
1.600E+01 2.029E-07 1.197E-02 7.994E-08 6.047E-03 6.473E-04 1.866E-02 1.866E-02 
1.800E+01 1.604E-07 1.094E-02 7.050E-08 6.452E-03 7.180E-04 1.811E-02 1.811E-02 
2.000E+01 1.299E-07 1.009E-02 6.304E-08 6.816E-03 7.824E-04 1.769E-02 1.769E-02 
2.200E+01 1.074E-07 9.370E-03 5.702E-08 7.148E-03 8.422E-04 1.736E-02 1.736E-02 
2.400E+01 9.021E-08 8.756E-03 5.203E-08 7.449E-03 8.972E-04 1.710E-02 1.710E-02 
2.600E+01 7.687E-08 8.221E-03 4.785E-08 7.724E-03 9.483E-04 1.689E-02 1.689E-02 
2.800E+01 6.626E-08 7.755E-03 4.428E-08 7.980E-03 9.962E-04 1.673E-02 1.673E-02 
3.000E+01 5.773E-08 7.343E-03 4.122E-08 8.216E-03 1.041E-03 1.660E-02 1.660E-02 
4.000E+01 3.248E-08 5.835E-03 3.061E-08 9.180E-03 1.229E-03 1.624E-02 1.624E-02 
5.000E+01 2.078E-08 4.872E-03 2.435E-08 9.914E-03 1.376E-03 1.616E-02 1.616E-02 
6.000E+01 1.443E-08 4.196E-03 2.021E-08 1.049E-02 1.496E-03 1.619E-02 1.619E-02 
8.000E+01 8.118E-09 3.310E-03 1.508E-08 1.138E-02 1.682E-03 1.637E-02 1.637E-02 
1.000E+02 5.196E-09 2.747E-03 1.203E-08 1.202E-02 1.823E-03 1.659E-02 1.659E-02 
1.500E+02 2.309E-09 1.956E-03 7.987E-09 1.310E-02 2.068E-03 1.712E-02 1.712E-02 
2.000E+02 1.299E-09 1.534E-03 5.980E-09 1.376E-02 2.230E-03 1.753E-02 1.753E-02 
3.000E+02 5.773E-10 1.087E-03 3.977E-09 1.457E-02 2.440E-03 1.809E-02 1.809E-02 
4.000E+02 3.248E-10 8.514E-04 2.981E-09 1.504E-02 2.571E-03 1.846E-02 1.846E-02 
5.000E+02 2.078E-10 7.049E-04 2.383E-09 1.535E-02 2.662E-03 1.872E-02 1.872E-02 
6.000E+02 1.443E-10 6.036E-04 1.985E-09 1.558E-02 2.730E-03 1.891E-02 1.891E-02 
8.000E+02 8.118E-11 4.714E-04 1.488E-09 1.588E-02 2.826E-03 1.918E-02 1.918E-02 
1.000E+03 5.196E-11 3.878E-04 1.190E-09 1.608E-02 2.890E-03 1.936E-02 1.936E-02 
1.500E+03 2.309E-11 2.708E-04 7.931E-10 1.638E-02 2.988E-03 1.963E-02 1.963E-02 
2.000E+03 1.299E-11 2.096E-04 5.947E-10 1.654E-02 3.043E-03 1.979E-02 1.979E-02 
3.000E+03 5.773E-12 1.457E-04 3.964E-10 1.671E-02 3.105E-03 1.996E-02 1.996E-02 
4.000E+03 3.248E-12 1.125E-04 2.973E-10 1.680E-02 3.141E-03 2.006E-02 2.006E-02 
5.000E+03 2.078E-12 9.199E-05 2.378E-10 1.686E-02 3.163E-03 2.012E-02 2.012E-02 
6.000E+03 1.443E-12 7.801E-05 1.982E-10 1.690E-02 3.179E-03 2.016E-02 2.016E-02 
8.000E+03 8.118E-13 6.008E-05 1.486E-10 1.696E-02 3.200E-03 2.022E-02 2.022E-02 
1.000E+04 5.196E-13 4.905E-05 1.189E-10 1.699E-02 3.213E-03 2.025E-02 2.025E-02 
1.500E+04 2.309E-13 3.390E-05 7.925E-11 1.704E-02 3.231E-03 2.030E-02 2.030E-02 
2.000E+04 1.299E-13 2.607E-05 5.944E-11 1.707E-02 3.242E-03 2.033E-02 2.033E-02 
3.000E+04 5.773E-14 1.798E-05 3.963E-11 1.709E-02 3.252E-03 2.036E-02 2.036E-02 
4.000E+04 3.248E-14 1.380E-05 2.972E-11 1.711E-02 3.259E-03 2.038E-02 2.038E-02 
5.000E+04 2.078E-14 1.124E-05 2.378E-11 1.711E-02 3.262E-03 2.039E-02 2.039E-02 
6.000E+04 1.443E-14 9.501E-06 1.981E-11 1.712E-02 3.265E-03 2.040E-02 2.040E-02 
8.000E+04 8.118E-15 7.286E-06 1.486E-11 1.713E-02 3.268E-03 2.040E-02 2.040E-02 
1.000E+05 5.196E-15 5.925E-06 1.189E-11 1.713E-02 3.270E-03 2.041E-02 2.041E-02  
