Photon    Coherent Incoher. Photoel. Nuclear  Electron Tot. w/  Tot. wo/ 
Energy    Scatter. Scatter. Absorb.  Pr. Prd. Pr. Prd. Coherent Coherent 

1.000E-03 1.372E+00 1.319E-02 4.076E+03 0.000E+00 0.000E+00 4.077E+03 4.076E+03 
1.500E-03 1.269E+00 2.673E-02 1.374E+03 0.000E+00 0.000E+00 1.376E+03 1.374E+03 
2.000E-03 1.150E+00 4.184E-02 6.162E+02 0.000E+00 0.000E+00 6.173E+02 6.162E+02 
3.000E-03 9.087E-01 7.075E-02 1.919E+02 0.000E+00 0.000E+00 1.928E+02 1.919E+02 
4.000E-03 7.082E-01 9.430E-02 8.197E+01 0.000E+00 0.000E+00 8.278E+01 8.207E+01 
5.000E-03 5.579E-01 1.123E-01 4.192E+01 0.000E+00 0.000E+00 4.259E+01 4.203E+01 
6.000E-03 4.489E-01 1.259E-01 2.407E+01 0.000E+00 0.000E+00 2.464E+01 2.419E+01 
8.000E-03 3.102E-01 1.440E-01 9.919E+00 0.000E+00 0.000E+00 1.037E+01 1.006E+01 
1.000E-02 2.305E-01 1.550E-01 4.944E+00 0.000E+00 0.000E+00 5.330E+00 5.099E+00 
1.200E-02 1.806E-01 1.624E-01 2.783E+00 0.000E+00 0.000E+00 3.126E+00 2.946E+00 
1.400E-02 1.465E-01 1.678E-01 1.706E+00 0.000E+00 0.000E+00 2.021E+00 1.874E+00 
1.500E-02 1.333E-01 1.699E-01 1.369E+00 0.000E+00 0.000E+00 1.672E+00 1.539E+00 
1.600E-02 1.219E-01 1.718E-01 1.114E+00 0.000E+00 0.000E+00 1.408E+00 1.286E+00 
1.800E-02 1.032E-01 1.749E-01 7.636E-01 0.000E+00 0.000E+00 1.042E+00 9.385E-01 
2.000E-02 8.856E-02 1.774E-01 5.439E-01 0.000E+00 0.000E+00 8.098E-01 7.213E-01 
2.200E-02 7.679E-02 1.792E-01 3.997E-01 0.000E+00 0.000E+00 6.557E-01 5.789E-01 
2.400E-02 6.717E-02 1.806E-01 3.015E-01 0.000E+00 0.000E+00 5.493E-01 4.821E-01 
2.600E-02 5.921E-02 1.817E-01 2.324E-01 0.000E+00 0.000E+00 4.733E-01 4.141E-01 
2.800E-02 5.256E-02 1.824E-01 1.826E-01 0.000E+00 0.000E+00 4.175E-01 3.650E-01 
3.000E-02 4.694E-02 1.829E-01 1.458E-01 0.000E+00 0.000E+00 3.756E-01 3.286E-01 
3.200E-02 4.215E-02 1.831E-01 1.180E-01 0.000E+00 0.000E+00 3.433E-01 3.012E-01 
3.400E-02 3.804E-02 1.832E-01 9.679E-02 0.000E+00 0.000E+00 3.181E-01 2.800E-01 
3.600E-02 3.450E-02 1.832E-01 8.026E-02 0.000E+00 0.000E+00 2.980E-01 2.635E-01 
3.800E-02 3.143E-02 1.830E-01 6.722E-02 0.000E+00 0.000E+00 2.817E-01 2.502E-01 
4.000E-02 2.874E-02 1.827E-01 5.680E-02 0.000E+00 0.000E+00 2.683E-01 2.395E-01 
4.200E-02 2.639E-02 1.824E-01 4.838E-02 0.000E+00 0.000E+00 2.571E-01 2.308E-01 
4.400E-02 2.431E-02 1.819E-01 4.152E-02 0.000E+00 0.000E+00 2.478E-01 2.235E-01 
4.600E-02 2.247E-02 1.814E-01 3.587E-02 0.000E+00 0.000E+00 2.398E-01 2.173E-01 
4.800E-02 2.083E-02 1.809E-01 3.117E-02 0.000E+00 0.000E+00 2.329E-01 2.121E-01 
5.000E-02 1.936E-02 1.803E-01 2.725E-02 0.000E+00 0.000E+00 2.269E-01 2.076E-01 
5.200E-02 1.804E-02 1.797E-01 2.394E-02 0.000E+00 0.000E+00 2.217E-01 2.037E-01 
5.400E-02 1.686E-02 1.791E-01 2.114E-02 0.000E+00 0.000E+00 2.171E-01 2.002E-01 
5.600E-02 1.578E-02 1.784E-01 1.875E-02 0.000E+00 0.000E+00 2.129E-01 1.972E-01 
5.800E-02 1.481E-02 1.777E-01 1.669E-02 0.000E+00 0.000E+00 2.092E-01 1.944E-01 
6.000E-02 1.392E-02 1.770E-01 1.493E-02 0.000E+00 0.000E+00 2.059E-01 1.920E-01 
6.200E-02 1.311E-02 1.763E-01 1.339E-02 0.000E+00 0.000E+00 2.028E-01 1.897E-01 
6.400E-02 1.236E-02 1.756E-01 1.206E-02 0.000E+00 0.000E+00 2.000E-01 1.877E-01 
6.600E-02 1.168E-02 1.749E-01 1.089E-02 0.000E+00 0.000E+00 1.974E-01 1.858E-01 
6.800E-02 1.106E-02 1.741E-01 9.871E-03 0.000E+00 0.000E+00 1.951E-01 1.840E-01 
7.000E-02 1.048E-02 1.734E-01 8.969E-03 0.000E+00 0.000E+00 1.928E-01 1.824E-01 
7.200E-02 9.943E-03 1.727E-01 8.172E-03 0.000E+00 0.000E+00 1.908E-01 1.808E-01 
7.400E-02 9.448E-03 1.719E-01 7.465E-03 0.000E+00 0.000E+00 1.888E-01 1.794E-01 
7.600E-02 8.988E-03 1.712E-01 6.835E-03 0.000E+00 0.000E+00 1.870E-01 1.780E-01 
7.800E-02 8.562E-03 1.705E-01 6.273E-03 0.000E+00 0.000E+00 1.853E-01 1.767E-01 
8.000E-02 8.165E-03 1.697E-01 5.770E-03 0.000E+00 0.000E+00 1.837E-01 1.755E-01 
8.200E-02 7.794E-03 1.690E-01 5.318E-03 0.000E+00 0.000E+00 1.821E-01 1.743E-01 
8.400E-02 7.448E-03 1.683E-01 4.911E-03 0.000E+00 0.000E+00 1.806E-01 1.732E-01 
8.600E-02 7.125E-03 1.675E-01 4.544E-03 0.000E+00 0.000E+00 1.792E-01 1.721E-01 
8.800E-02 6.821E-03 1.668E-01 4.212E-03 0.000E+00 0.000E+00 1.779E-01 1.710E-01 
9.000E-02 6.537E-03 1.661E-01 3.911E-03 0.000E+00 0.000E+00 1.766E-01 1.700E-01 
9.200E-02 6.270E-03 1.654E-01 3.637E-03 0.000E+00 0.000E+00 1.753E-01 1.690E-01 
9.400E-02 6.019E-03 1.647E-01 3.388E-03 0.000E+00 0.000E+00 1.741E-01 1.681E-01 
9.600E-02 5.783E-03 1.640E-01 3.161E-03 0.000E+00 0.000E+00 1.729E-01 1.672E-01 
9.800E-02 5.560E-03 1.633E-01 2.953E-03 0.000E+00 0.000E+00 1.718E-01 1.663E-01 
1.000E-01 5.349E-03 1.626E-01 2.763E-03 0.000E+00 0.000E+00 1.707E-01 1.654E-01 
1.020E-01 5.151E-03 1.619E-01 2.588E-03 0.000E+00 0.000E+00 1.697E-01 1.645E-01 
1.040E-01 4.963E-03 1.613E-01 2.428E-03 0.000E+00 0.000E+00 1.686E-01 1.637E-01 
1.060E-01 4.785E-03 1.606E-01 2.280E-03 0.000E+00 0.000E+00 1.677E-01 1.629E-01 
1.080E-01 4.616E-03 1.599E-01 2.144E-03 0.000E+00 0.000E+00 1.667E-01 1.621E-01 
1.100E-01 4.456E-03 1.593E-01 2.018E-03 0.000E+00 0.000E+00 1.657E-01 1.613E-01 
1.120E-01 4.304E-03 1.586E-01 1.902E-03 0.000E+00 0.000E+00 1.648E-01 1.605E-01 
1.140E-01 4.160E-03 1.580E-01 1.795E-03 0.000E+00 0.000E+00 1.639E-01 1.598E-01 
1.160E-01 4.023E-03 1.573E-01 1.695E-03 0.000E+00 0.000E+00 1.630E-01 1.590E-01 
1.180E-01 3.892E-03 1.567E-01 1.602E-03 0.000E+00 0.000E+00 1.622E-01 1.583E-01 
1.200E-01 3.768E-03 1.561E-01 1.516E-03 0.000E+00 0.000E+00 1.614E-01 1.576E-01 
1.220E-01 3.650E-03 1.554E-01 1.436E-03 0.000E+00 0.000E+00 1.605E-01 1.569E-01 
1.240E-01 3.537E-03 1.548E-01 1.362E-03 0.000E+00 0.000E+00 1.597E-01 1.562E-01 
1.260E-01 3.429E-03 1.542E-01 1.292E-03 0.000E+00 0.000E+00 1.589E-01 1.555E-01 
1.280E-01 3.326E-03 1.536E-01 1.227E-03 0.000E+00 0.000E+00 1.582E-01 1.548E-01 
1.300E-01 3.227E-03 1.530E-01 1.166E-03 0.000E+00 0.000E+00 1.574E-01 1.542E-01 
1.320E-01 3.133E-03 1.524E-01 1.109E-03 0.000E+00 0.000E+00 1.567E-01 1.535E-01 
1.340E-01 3.042E-03 1.518E-01 1.056E-03 0.000E+00 0.000E+00 1.559E-01 1.529E-01 
1.360E-01 2.956E-03 1.513E-01 1.006E-03 0.000E+00 0.000E+00 1.552E-01 1.523E-01 
1.380E-01 2.873E-03 1.507E-01 9.592E-04 0.000E+00 0.000E+00 1.545E-01 1.516E-01 
1.400E-01 2.794E-03 1.501E-01 9.152E-04 0.000E+00 0.000E+00 1.538E-01 1.510E-01 
1.420E-01 2.718E-03 1.496E-01 8.738E-04 0.000E+00 0.000E+00 1.531E-01 1.504E-01 
1.440E-01 2.645E-03 1.490E-01 8.348E-04 0.000E+00 0.000E+00 1.525E-01 1.498E-01 
1.460E-01 2.574E-03 1.484E-01 7.980E-04 0.000E+00 0.000E+00 1.518E-01 1.492E-01 
1.480E-01 2.507E-03 1.479E-01 7.634E-04 0.000E+00 0.000E+00 1.512E-01 1.487E-01 
1.500E-01 2.442E-03 1.473E-01 7.308E-04 0.000E+00 0.000E+00 1.505E-01 1.481E-01 
1.520E-01 2.380E-03 1.468E-01 6.999E-04 0.000E+00 0.000E+00 1.499E-01 1.475E-01 
1.540E-01 2.319E-03 1.463E-01 6.708E-04 0.000E+00 0.000E+00 1.493E-01 1.470E-01 
1.560E-01 2.262E-03 1.458E-01 6.432E-04 0.000E+00 0.000E+00 1.487E-01 1.464E-01 
1.580E-01 2.206E-03 1.452E-01 6.171E-04 0.000E+00 0.000E+00 1.481E-01 1.458E-01 
1.600E-01 2.152E-03 1.447E-01 5.924E-04 0.000E+00 0.000E+00 1.475E-01 1.453E-01 
1.620E-01 2.100E-03 1.442E-01 5.690E-04 0.000E+00 0.000E+00 1.469E-01 1.448E-01 
1.640E-01 2.051E-03 1.437E-01 5.468E-04 0.000E+00 0.000E+00 1.463E-01 1.442E-01 
1.660E-01 2.002E-03 1.432E-01 5.258E-04 0.000E+00 0.000E+00 1.457E-01 1.437E-01 
1.680E-01 1.956E-03 1.427E-01 5.058E-04 0.000E+00 0.000E+00 1.452E-01 1.432E-01 
1.700E-01 1.911E-03 1.422E-01 4.868E-04 0.000E+00 0.000E+00 1.446E-01 1.427E-01 
1.720E-01 1.867E-03 1.417E-01 4.687E-04 0.000E+00 0.000E+00 1.440E-01 1.422E-01 
1.740E-01 1.826E-03 1.412E-01 4.515E-04 0.000E+00 0.000E+00 1.435E-01 1.417E-01 
1.760E-01 1.785E-03 1.408E-01 4.352E-04 0.000E+00 0.000E+00 1.430E-01 1.412E-01 
1.780E-01 1.746E-03 1.403E-01 4.196E-04 0.000E+00 0.000E+00 1.424E-01 1.407E-01 
1.800E-01 1.708E-03 1.398E-01 4.048E-04 0.000E+00 0.000E+00 1.419E-01 1.402E-01 
1.820E-01 1.671E-03 1.393E-01 3.906E-04 0.000E+00 0.000E+00 1.414E-01 1.397E-01 
1.840E-01 1.636E-03 1.389E-01 3.771E-04 0.000E+00 0.000E+00 1.409E-01 1.393E-01 
1.860E-01 1.601E-03 1.384E-01 3.643E-04 0.000E+00 0.000E+00 1.404E-01 1.388E-01 
1.880E-01 1.568E-03 1.380E-01 3.520E-04 0.000E+00 0.000E+00 1.399E-01 1.383E-01 
1.900E-01 1.535E-03 1.375E-01 3.402E-04 0.000E+00 0.000E+00 1.394E-01 1.379E-01 
1.920E-01 1.504E-03 1.371E-01 3.290E-04 0.000E+00 0.000E+00 1.389E-01 1.374E-01 
1.940E-01 1.474E-03 1.366E-01 3.183E-04 0.000E+00 0.000E+00 1.384E-01 1.370E-01 
1.960E-01 1.444E-03 1.362E-01 3.080E-04 0.000E+00 0.000E+00 1.380E-01 1.365E-01 
1.980E-01 1.415E-03 1.358E-01 2.981E-04 0.000E+00 0.000E+00 1.375E-01 1.361E-01 
2.000E-01 1.388E-03 1.353E-01 2.887E-04 0.000E+00 0.000E+00 1.370E-01 1.356E-01 
2.020E-01 1.361E-03 1.349E-01 2.797E-04 0.000E+00 0.000E+00 1.366E-01 1.352E-01 
3.000E-01 6.215E-04 1.179E-01 8.160E-05 0.000E+00 0.000E+00 1.186E-01 1.180E-01 
4.000E-01 3.506E-04 1.058E-01 3.493E-05 0.000E+00 0.000E+00 1.061E-01 1.058E-01 
5.000E-01 2.247E-04 9.663E-02 1.883E-05 0.000E+00 0.000E+00 9.687E-02 9.665E-02 
6.000E-01 1.561E-04 8.939E-02 1.173E-05 0.000E+00 0.000E+00 8.956E-02 8.940E-02 
8.000E-01 8.790E-05 7.856E-02 5.920E-06 0.000E+00 0.000E+00 7.866E-02 7.857E-02 
1.000E+00 5.627E-05 7.066E-02 3.681E-06 0.000E+00 0.000E+00 7.072E-02 7.066E-02 
1.022E+00 5.388E-05 6.991E-02 3.430E-06 0.000E+00 0.000E+00 6.997E-02 6.991E-02 
1.250E+00 3.603E-05 6.318E-02 2.329E-06 1.777E-05 0.000E+00 6.323E-02 6.320E-02 
1.500E+00 2.501E-05 5.742E-02 1.690E-06 9.820E-05 0.000E+00 5.754E-02 5.752E-02 
2.000E+00 1.407E-05 4.901E-02 1.063E-06 3.908E-04 0.000E+00 4.942E-02 4.940E-02 
2.044E+00 1.347E-05 4.839E-02 1.028E-06 4.212E-04 0.000E+00 4.883E-02 4.881E-02 
3.000E+00 6.255E-06 3.855E-02 5.937E-07 1.117E-03 1.349E-05 3.969E-02 3.968E-02 
4.000E+00 3.519E-06 3.216E-02 4.075E-07 1.812E-03 5.507E-05 3.403E-02 3.402E-02 
5.000E+00 2.252E-06 2.777E-02 3.090E-07 2.431E-03 1.097E-04 3.031E-02 3.031E-02 
6.000E+00 1.564E-06 2.454E-02 2.484E-07 2.987E-03 1.685E-04 2.770E-02 2.770E-02 
7.000E+00 1.149E-06 2.206E-02 2.075E-07 3.482E-03 2.272E-04 2.577E-02 2.577E-02 
8.000E+00 8.796E-07 2.008E-02 1.780E-07 3.927E-03 2.843E-04 2.429E-02 2.429E-02 
9.000E+00 6.951E-07 1.846E-02 1.559E-07 4.334E-03 3.389E-04 2.313E-02 2.313E-02 
1.000E+01 5.630E-07 1.710E-02 1.386E-07 4.699E-03 3.910E-04 2.219E-02 2.219E-02 
1.100E+01 4.652E-07 1.595E-02 1.248E-07 5.034E-03 4.404E-04 2.142E-02 2.142E-02 
1.200E+01 3.909E-07 1.496E-02 1.134E-07 5.341E-03 4.872E-04 2.079E-02 2.079E-02 
1.300E+01 3.331E-07 1.409E-02 1.039E-07 5.627E-03 5.315E-04 2.025E-02 2.025E-02 
1.400E+01 2.872E-07 1.333E-02 9.591E-08 5.893E-03 5.737E-04 1.980E-02 1.980E-02 
1.500E+01 2.502E-07 1.266E-02 8.906E-08 6.141E-03 6.135E-04 1.941E-02 1.941E-02 
1.600E+01 2.199E-07 1.205E-02 8.311E-08 6.376E-03 6.519E-04 1.908E-02 1.908E-02 
1.800E+01 1.737E-07 1.102E-02 7.331E-08 6.803E-03 7.230E-04 1.854E-02 1.854E-02 
2.000E+01 1.407E-07 1.016E-02 6.556E-08 7.186E-03 7.878E-04 1.813E-02 1.813E-02 
2.200E+01 1.163E-07 9.435E-03 5.930E-08 7.535E-03 8.480E-04 1.782E-02 1.782E-02 
2.400E+01 9.775E-08 8.817E-03 5.412E-08 7.853E-03 9.033E-04 1.757E-02 1.757E-02 
2.600E+01 8.329E-08 8.278E-03 4.978E-08 8.143E-03 9.548E-04 1.738E-02 1.738E-02 
2.800E+01 7.180E-08 7.809E-03 4.607E-08 8.412E-03 1.003E-03 1.722E-02 1.722E-02 
3.000E+01 6.255E-08 7.396E-03 4.289E-08 8.661E-03 1.048E-03 1.710E-02 1.710E-02 
4.000E+01 3.519E-08 5.875E-03 3.186E-08 9.674E-03 1.237E-03 1.679E-02 1.679E-02 
5.000E+01 2.252E-08 4.906E-03 2.534E-08 1.045E-02 1.385E-03 1.674E-02 1.674E-02 
6.000E+01 1.564E-08 4.225E-03 2.104E-08 1.106E-02 1.505E-03 1.679E-02 1.679E-02 
8.000E+01 8.796E-09 3.333E-03 1.571E-08 1.199E-02 1.693E-03 1.702E-02 1.702E-02 
1.000E+02 5.630E-09 2.767E-03 1.253E-08 1.267E-02 1.834E-03 1.727E-02 1.727E-02 
1.500E+02 2.502E-09 1.970E-03 8.317E-09 1.380E-02 2.081E-03 1.785E-02 1.785E-02 
2.000E+02 1.407E-09 1.545E-03 6.228E-09 1.450E-02 2.243E-03 1.829E-02 1.829E-02 
3.000E+02 6.255E-10 1.095E-03 4.142E-09 1.534E-02 2.453E-03 1.888E-02 1.888E-02 
4.000E+02 3.519E-10 8.574E-04 3.105E-09 1.583E-02 2.584E-03 1.927E-02 1.927E-02 
5.000E+02 2.251E-10 7.099E-04 2.482E-09 1.615E-02 2.675E-03 1.954E-02 1.954E-02 
6.000E+02 1.564E-10 6.079E-04 2.068E-09 1.639E-02 2.742E-03 1.974E-02 1.974E-02 
8.000E+02 8.796E-11 4.747E-04 1.550E-09 1.670E-02 2.838E-03 2.002E-02 2.002E-02 
1.000E+03 5.630E-11 3.905E-04 1.240E-09 1.691E-02 2.902E-03 2.020E-02 2.020E-02 
1.500E+03 2.502E-11 2.727E-04 8.260E-10 1.721E-02 2.999E-03 2.048E-02 2.048E-02 
2.000E+03 1.407E-11 2.111E-04 6.194E-10 1.738E-02 3.054E-03 2.064E-02 2.064E-02 
3.000E+03 6.255E-12 1.467E-04 4.129E-10 1.755E-02 3.114E-03 2.082E-02 2.082E-02 
4.000E+03 3.519E-12 1.133E-04 3.096E-10 1.765E-02 3.150E-03 2.091E-02 2.091E-02 
5.000E+03 2.251E-12 9.264E-05 2.477E-10 1.771E-02 3.172E-03 2.097E-02 2.097E-02 
6.000E+03 1.564E-12 7.856E-05 2.064E-10 1.776E-02 3.188E-03 2.102E-02 2.102E-02 
8.000E+03 8.796E-13 6.050E-05 1.548E-10 1.781E-02 3.208E-03 2.108E-02 2.108E-02 
1.000E+04 5.630E-13 4.939E-05 1.238E-10 1.784E-02 3.222E-03 2.111E-02 2.111E-02 
1.500E+04 2.502E-13 3.414E-05 8.254E-11 1.789E-02 3.239E-03 2.117E-02 2.117E-02 
2.000E+04 1.407E-13 2.625E-05 6.191E-11 1.792E-02 3.250E-03 2.120E-02 2.120E-02 
3.000E+04 6.255E-14 1.811E-05 4.129E-11 1.795E-02 3.260E-03 2.123E-02 2.123E-02 
4.000E+04 3.519E-14 1.390E-05 3.096E-11 1.796E-02 3.267E-03 2.124E-02 2.124E-02 
5.000E+04 2.251E-14 1.132E-05 2.476E-11 1.797E-02 3.270E-03 2.125E-02 2.125E-02 
6.000E+04 1.564E-14 9.568E-06 2.064E-11 1.798E-02 3.273E-03 2.126E-02 2.126E-02 
8.000E+04 8.796E-15 7.337E-06 1.548E-11 1.798E-02 3.275E-03 2.127E-02 2.127E-02 
1.000E+05 5.630E-15 5.967E-06 1.238E-11 1.799E-02 3.278E-03 2.127E-02 2.127E-02  
